intervalos,canal1,canal2,canal3,canal4,canal5
0,0,0,0,0,231
1,0,0,0,0,231
2,0,0,0,0,231
3,0,0,0,0,231
4,0,0,0,0,231
5,0,0,0,0,231
6,0,0,0,0,231
7,0,0,0,0,231
8,0,0,0,0,231
9,0,0,0,0,231
10,0,0,0,0,231
11,0,0,0,0,230
12,0,0,0,0,230
13,0,0,0,0,230
14,0,0,0,0,230
15,0,0,0,0,230
0,0,0,0,0,229
1,0,0,0,0,229
2,0,0,0,0,229
3,0,0,0,0,229
4,0,0,0,0,229
5,0,0,0,0,229
6,0,0,0,0,229
7,0,0,0,0,229
8,0,0,0,0,229
9,0,0,0,0,229
10,0,0,0,0,229
11,0,0,0,0,229
12,0,0,0,0,229
13,0,0,0,0,228
14,0,0,0,0,228
15,0,0,0,0,229
0,0,0,0,0,228
1,0,0,0,0,228
2,0,0,0,0,228
3,0,0,0,0,228
4,0,0,0,0,228
5,0,0,0,0,228
6,0,0,0,0,228
7,0,0,0,0,228
8,0,0,0,0,228
9,0,0,0,0,228
10,0,0,0,0,228
11,0,0,0,0,228
12,0,0,0,0,228
13,0,0,0,0,228
14,0,0,0,0,228
15,0,0,0,0,228
0,0,0,0,0,228
1,0,0,0,0,228
2,0,0,0,0,228
3,0,0,0,0,228
4,0,0,0,0,228
5,0,0,0,0,228
6,0,0,0,0,228
7,0,0,0,0,228
8,0,0,0,0,228
9,0,0,0,0,228
10,0,0,0,0,228
11,0,0,0,0,228
12,0,0,0,0,228
13,0,0,0,0,228
14,0,0,0,0,228
15,0,0,0,0,228
0,0,0,0,0,228
1,0,0,0,0,227
2,0,0,0,0,227
3,0,0,0,0,228
4,0,0,0,0,227
5,0,0,0,0,227
6,0,0,0,0,227
7,0,0,0,0,227
8,0,0,0,0,227
9,0,0,0,0,227
10,0,0,0,0,227
11,0,0,0,0,227
12,0,0,0,0,227
13,0,0,0,0,227
14,0,0,0,0,227
15,0,0,0,0,227
0,0,0,0,0,227
1,0,0,0,0,227
2,0,0,0,0,227
3,0,0,0,0,227
4,0,0,0,0,227
5,0,0,0,0,227
6,0,0,0,0,227
7,0,0,0,0,227
8,0,0,0,0,227
9,0,0,0,0,227
10,0,0,0,0,227
11,0,0,0,0,227
12,0,0,0,0,227
13,0,0,0,0,227
14,0,0,0,0,227
15,0,0,0,0,227
0,0,0,0,0,227
1,0,0,0,0,227
2,0,0,0,0,227
3,0,0,0,0,227
4,0,0,0,0,227
5,0,0,0,0,227
6,0,0,0,0,227
7,0,0,0,0,227
8,0,0,0,0,227
9,0,0,0,0,227
10,0,0,0,0,227
11,0,0,0,0,227
12,0,0,0,0,227
13,0,0,0,0,227
14,0,0,0,0,227
15,0,0,0,0,227
0,0,0,0,0,226
1,0,0,0,0,226
2,0,0,0,0,226
3,0,0,0,0,226
4,0,0,0,0,226
5,0,0,0,0,226
6,0,0,0,0,226
7,0,0,0,0,226
8,0,0,0,0,226
9,0,0,0,0,226
10,0,0,0,0,226
11,0,0,0,0,226
12,0,0,0,0,226
13,0,0,0,0,226
14,0,0,0,0,226
15,0,0,0,0,226
0,0,0,0,0,226
1,0,0,0,0,226
2,0,0,0,0,226
3,0,0,0,0,226
4,0,0,0,0,226
5,0,0,0,0,226
6,0,0,0,0,226
7,0,0,0,0,226
8,0,0,0,0,226
9,0,0,0,0,226
10,0,0,0,0,226
11,0,0,0,0,226
12,0,0,0,0,226
13,0,0,0,0,226
14,0,0,0,0,226
15,0,0,0,0,226
0,0,0,0,0,226
1,0,0,0,0,225
2,0,0,0,0,225
3,0,0,0,0,225
4,0,0,0,0,225
5,0,0,0,0,225
6,0,0,0,0,225
7,0,0,0,0,225
8,0,0,0,0,225
9,0,0,0,0,225
10,0,0,0,0,225
11,0,0,0,0,225
12,0,0,0,0,225
13,0,0,0,0,225
14,0,0,0,0,225
15,0,0,0,0,225
0,0,0,0,0,225
1,0,0,0,0,225
2,0,0,0,0,225
3,0,0,0,0,225
4,0,0,0,0,225
5,0,0,0,0,225
6,0,0,0,0,225
7,0,0,0,0,225
8,0,0,0,0,225
9,0,0,0,0,225
10,0,0,0,0,225
11,0,0,0,0,225
12,0,0,0,0,225
13,0,0,0,0,225
14,0,0,0,0,225
15,0,0,0,0,225
0,0,0,0,0,225
1,0,0,0,0,225
2,0,0,0,0,225
3,0,0,0,0,225
4,0,0,0,0,225
5,0,0,0,0,225
6,0,0,0,0,225
7,0,0,0,0,225
8,0,0,0,0,225
9,0,0,0,0,225
10,0,0,0,0,225
11,0,0,0,0,225
12,0,0,0,0,225
13,0,0,0,0,225
14,0,0,0,0,225
15,0,0,0,0,225
0,0,0,0,0,225
1,0,0,0,0,225
2,0,0,0,0,225
3,0,0,0,0,225
4,0,0,0,0,225
5,0,0,0,0,225
6,0,0,0,0,224
7,0,0,0,0,225
8,0,0,0,0,225
9,0,0,0,0,224
10,0,0,0,0,224
11,0,0,0,0,224
12,0,0,0,0,224
13,0,0,0,0,224
14,0,0,0,0,224
15,0,0,0,0,224
0,0,0,0,0,224
1,0,0,0,0,224
2,0,0,0,0,224
3,0,0,0,0,224
4,0,0,0,0,224
5,0,0,0,0,224
6,0,0,0,0,224
7,0,0,0,0,224
8,0,0,0,0,224
9,0,0,0,0,224
10,0,0,0,0,224
11,0,0,0,0,224
12,0,0,0,0,224
13,0,0,0,0,224
14,0,0,0,0,224
15,0,0,0,0,224
0,0,0,0,0,224
1,0,0,0,0,224
2,0,0,0,0,224
3,0,0,0,0,224
4,0,0,0,0,224
5,0,0,0,0,224
6,0,0,0,0,224
7,0,0,0,0,224
8,0,0,0,0,224
9,0,0,0,0,224
10,0,0,0,0,224
11,0,0,0,0,224
12,0,0,0,0,224
13,0,0,0,0,224
14,0,0,0,0,224
15,0,0,0,0,224
0,0,0,0,0,224
1,0,0,0,0,224
2,0,0,0,0,224
3,0,0,0,0,224
4,0,0,0,0,224
5,0,0,0,0,224
6,0,0,0,0,224
7,0,0,0,0,224
8,0,0,0,0,224
9,0,0,0,0,224
10,0,0,0,0,224
11,0,0,0,0,224
12,0,0,0,0,224
13,0,0,0,0,224
14,0,0,0,0,224
15,0,0,0,0,224
0,0,0,0,0,224
1,0,0,0,0,224
2,0,0,0,0,224
3,0,0,0,0,224
4,0,0,0,0,224
5,0,0,0,0,224
6,0,0,0,0,224
7,0,0,0,0,224
8,0,0,0,0,224
9,0,0,0,0,223
10,0,0,0,0,223
11,0,0,0,0,224
12,0,0,0,0,223
13,0,0,0,0,223
14,0,0,0,0,223
15,0,0,0,0,224
0,0,0,0,0,224
1,0,0,0,0,223
2,0,0,0,0,223
3,0,0,0,0,224
4,0,0,0,0,223
5,0,0,0,0,223
6,0,0,0,0,223
7,0,0,0,0,224
8,0,0,0,0,224
9,0,0,0,0,223
10,0,0,0,0,223
11,0,0,0,0,224
12,0,0,0,0,224
13,0,0,0,0,223
14,0,0,0,0,223
15,0,0,0,0,224
0,0,0,0,0,224
1,0,0,0,0,224
2,0,0,0,0,224
3,0,0,0,0,224
4,0,0,0,0,224
5,0,0,0,0,224
6,0,0,0,0,224
7,0,0,0,0,224
8,0,0,0,0,224
9,0,0,0,0,224
10,0,0,0,0,224
11,0,0,0,0,224
12,0,0,0,0,224
13,0,0,0,0,224
14,0,0,0,0,224
15,0,0,0,0,224
0,0,0,0,0,224
1,0,0,0,0,224
2,0,0,0,0,224
3,0,0,0,0,224
4,0,0,0,0,224
5,0,0,0,0,224
6,0,0,0,0,224
7,0,0,0,0,225
8,0,0,0,0,224
9,0,0,0,0,225
10,0,0,0,0,225
11,0,0,0,0,225
12,0,0,0,0,225
13,0,0,0,0,225
14,0,0,0,0,225
15,0,0,0,0,225
0,0,0,0,0,225
1,0,0,0,0,225
2,0,0,0,0,225
3,0,0,0,0,226
4,0,0,0,0,226
5,0,0,0,0,226
6,0,0,0,0,226
7,0,0,0,0,226
8,0,0,0,0,226
9,0,0,0,0,226
10,0,0,0,0,227
11,0,0,0,0,227
12,0,0,0,0,227
13,0,0,0,0,227
14,0,0,0,0,227
15,0,0,0,0,227
0,0,0,0,0,227
1,0,0,0,0,227
2,0,0,0,0,227
3,0,0,0,0,228
4,0,0,0,0,228
5,0,0,0,0,228
6,0,0,0,0,228
7,0,0,0,0,228
8,0,0,0,0,228
9,0,0,0,0,229
10,0,0,0,0,229
11,0,0,0,0,229
12,0,0,0,0,229
13,0,0,0,0,230
14,0,0,0,0,230
15,0,0,0,0,230
0,0,0,0,0,230
1,0,0,0,0,230
2,0,0,0,0,231
3,0,0,0,0,231
4,0,0,0,0,231
5,0,0,0,0,231
6,0,0,0,0,231
7,0,0,0,0,232
8,0,0,0,0,232
9,0,0,0,0,232
10,0,0,0,0,232
11,0,0,0,0,233
12,0,0,0,0,233
13,0,0,0,0,233
14,0,0,0,0,233
15,0,0,0,0,234
0,0,0,0,0,234
1,0,0,0,0,234
2,0,0,0,0,234
3,0,0,0,0,235
4,0,0,0,0,235
5,0,0,0,0,235
6,0,0,0,0,235
7,0,0,0,0,236
8,0,0,0,0,236
9,0,0,0,0,236
10,0,0,0,0,236
11,0,0,0,0,236
12,0,0,0,0,237
13,0,0,0,0,237
14,0,0,0,0,237
15,0,0,0,0,237
0,0,0,0,0,238
1,0,0,0,0,238
2,0,0,0,0,238
3,0,0,0,0,238
4,0,0,0,0,238
5,0,0,0,0,239
6,0,0,0,0,239
7,0,0,0,0,239
8,0,0,0,0,239
9,0,0,0,0,239
10,0,0,0,0,240
11,0,0,0,0,240
12,0,0,0,0,240
13,0,0,0,0,240
14,0,0,0,0,240
15,0,0,0,0,240
0,0,0,0,0,240
1,0,0,0,0,241
2,0,0,0,0,241
3,0,0,0,0,241
4,0,0,0,0,241
5,0,0,0,0,241
6,0,0,0,0,241
7,0,0,0,0,242
8,0,0,0,0,242
9,0,0,0,0,242
10,0,0,0,0,242
11,0,0,0,0,242
12,0,0,0,0,242
13,0,0,0,0,242
14,0,0,0,0,243
15,0,0,0,0,243
0,0,0,0,0,243
1,0,0,0,0,243
2,0,0,0,0,243
3,0,0,0,0,243
4,0,0,0,0,243
5,0,0,0,0,243
6,0,0,0,0,243
7,0,0,0,0,244
8,0,0,0,0,244
9,0,0,0,0,244
10,0,0,0,0,244
11,0,0,0,0,244
12,0,0,0,0,244
13,0,0,0,0,244
14,0,0,0,0,244
15,0,0,0,0,244
0,0,0,0,0,244
1,0,0,0,0,244
2,0,0,0,0,245
3,0,0,0,0,245
4,0,0,0,0,245
5,0,0,0,0,245
6,0,0,0,0,245
7,0,0,0,0,245
8,0,0,0,0,245
9,0,0,0,0,245
10,0,0,0,0,245
11,0,0,0,0,246
12,0,0,0,0,246
13,0,0,0,0,246
14,0,0,0,0,246
15,0,0,0,0,246
0,0,0,0,0,246
1,0,0,0,0,246
2,0,0,0,0,246
3,0,0,0,0,246
4,0,0,0,0,246
5,0,0,0,0,246
6,0,0,0,0,246
7,0,0,0,0,246
8,0,0,0,0,246
9,0,0,0,0,246
10,0,0,0,0,247
11,0,0,0,0,247
12,0,0,0,0,247
13,0,0,0,0,247
14,0,0,0,0,247
15,0,0,0,0,247
0,0,0,0,0,247
1,0,0,0,0,247
2,0,0,0,0,247
3,0,0,0,0,247
4,0,0,0,0,247
5,0,0,0,0,247
6,0,0,0,0,247
7,0,0,0,0,247
8,0,0,0,0,247
9,0,0,0,0,247
10,0,0,0,0,248
11,0,0,0,0,248
12,0,0,0,0,248
13,0,0,0,0,248
14,0,0,0,0,248
15,0,0,0,0,248
0,0,0,0,0,248
1,0,0,0,0,248
2,0,0,0,0,248
3,0,0,0,0,248
4,0,0,0,0,248
5,0,0,0,0,248
6,0,0,0,0,248
7,0,0,0,0,248
8,0,0,0,0,248
9,0,0,0,0,248
10,0,0,0,0,248
11,0,0,0,0,248
12,0,0,0,0,248
13,0,0,0,0,248
14,0,0,0,0,248
15,0,0,0,0,248
0,0,0,0,0,248
1,0,0,0,0,248
2,0,0,0,0,248
3,0,0,0,0,248
4,0,0,0,0,248
5,0,0,0,0,248
6,0,0,0,0,248
7,0,0,0,0,248
8,0,0,0,0,248
9,0,0,0,0,248
10,0,0,0,0,248
11,0,0,0,0,248
12,0,0,0,0,248
13,0,0,0,0,248
14,0,0,0,0,248
15,0,0,0,0,249
0,0,0,0,0,248
1,0,0,0,0,248
2,0,0,0,0,248
3,0,0,0,0,248
4,0,0,0,0,248
5,0,0,0,0,248
6,0,0,0,0,248
7,0,0,0,0,249
8,0,0,0,0,248
9,0,0,0,0,248
10,0,0,0,0,249
11,0,0,0,0,249
12,0,0,0,0,248
13,0,0,0,0,248
14,0,0,0,0,248
15,0,0,0,0,249
0,0,0,0,0,248
1,0,0,0,0,248
2,0,0,0,0,248
3,0,0,0,0,249
4,0,0,0,0,248
5,0,0,0,0,248
6,0,0,0,0,248
7,0,0,0,0,248
8,0,0,0,0,248
9,0,0,0,0,248
10,0,0,0,0,248
11,0,0,0,0,248
12,0,0,0,0,248
13,0,0,0,0,248
14,0,0,0,0,248
15,0,0,0,0,248
0,0,0,0,0,248
1,0,0,0,0,248
2,0,0,0,0,248
3,0,0,0,0,248
4,0,0,0,0,248
5,0,0,0,0,248
6,0,0,0,0,248
7,0,0,0,0,248
8,0,0,0,0,248
9,0,0,0,0,248
10,0,0,0,0,248
11,0,0,0,0,248
12,0,0,0,0,248
13,0,0,0,0,248
14,0,0,0,0,248
15,0,0,0,0,248
0,0,0,0,0,248
1,0,0,0,0,248
2,0,0,0,0,248
3,0,0,0,0,248
4,0,0,0,0,248
5,0,0,0,0,248
6,0,0,0,0,248
7,0,0,0,0,248
8,0,0,0,0,248
9,0,0,0,0,248
10,0,0,0,0,248
11,0,0,0,0,248
12,0,0,0,0,248
13,0,0,0,0,247
14,0,0,0,0,247
15,0,0,0,0,248
0,0,0,0,0,247
1,0,0,0,0,247
2,0,0,0,0,247
3,0,0,0,0,247
4,0,0,0,0,247
5,0,0,0,0,247
6,0,0,0,0,247
7,0,0,0,0,247
8,0,0,0,0,247
9,0,0,0,0,247
10,0,0,0,0,247
11,0,0,0,0,247
12,0,0,0,0,247
13,0,0,0,0,247
14,0,0,0,0,247
15,0,0,0,0,247
0,0,0,0,0,246
1,0,0,0,0,246
2,0,0,0,0,246
3,0,0,0,0,246
4,0,0,0,0,246
5,0,0,0,0,246
6,0,0,0,0,246
7,0,0,0,0,246
8,0,0,0,0,246
9,0,0,0,0,246
10,0,0,0,0,246
11,0,0,0,0,246
12,0,0,0,0,245
13,0,0,0,0,245
14,0,0,0,0,245
15,0,0,0,0,245
0,0,0,0,0,245
1,0,0,0,0,245
2,0,0,0,0,245
3,0,0,0,0,245
4,0,0,0,0,245
5,0,0,0,0,244
6,0,0,0,0,244
7,0,0,0,0,244
8,0,0,0,0,244
9,0,0,0,0,244
10,0,0,0,0,244
11,0,0,0,0,244
12,0,0,0,0,244
13,0,0,0,0,244
14,0,0,0,0,244
15,0,0,0,0,244
0,0,0,0,0,244
1,0,0,0,0,243
2,0,0,0,0,243
3,0,0,0,0,242
4,0,0,0,0,242
5,0,0,0,0,242
6,0,0,0,0,242
7,0,0,0,0,242
8,0,0,0,0,242
9,0,0,0,0,242
10,0,0,0,0,242
11,0,0,0,0,243
12,0,0,0,0,242
13,0,0,0,0,242
14,0,0,0,0,242
15,0,0,0,0,242
0,0,0,0,0,242
1,0,0,0,0,242
2,0,0,0,0,242
3,0,0,0,0,242
4,0,0,0,0,242
5,0,0,0,0,242
6,0,0,0,0,242
7,0,0,0,0,242
8,0,0,0,0,241
9,0,0,0,0,241
10,0,0,0,0,241
11,0,0,0,0,241
12,0,0,0,0,241
13,0,0,0,0,241
14,0,0,0,0,241
15,0,0,0,0,241
0,0,0,0,0,241
1,0,0,0,0,241
2,0,0,0,0,241
3,0,0,0,0,241
4,0,0,0,0,241
5,0,0,0,0,240
6,0,0,0,0,240
7,0,0,0,0,240
8,0,0,0,0,240
9,0,0,0,0,240
10,0,0,0,0,240
11,0,0,0,0,240
12,0,0,0,0,240
13,0,0,0,0,240
14,0,0,0,0,240
15,0,0,0,0,240
0,0,0,0,0,240
1,0,0,0,0,239
2,0,0,0,0,239
3,0,0,0,0,238
4,0,0,0,0,236
5,0,0,0,0,235
6,0,0,0,0,234
7,0,0,0,0,233
8,0,0,0,0,232
9,0,0,0,0,232
10,0,0,0,0,231
11,0,0,0,0,231
12,0,0,0,0,230
13,0,0,0,0,230
14,0,0,0,0,229
15,0,0,0,0,229
0,0,0,0,0,227
1,0,0,0,0,227
2,0,0,0,0,226
3,0,0,0,0,225
4,0,0,0,0,225
5,0,0,0,0,224
6,0,0,0,0,223
7,0,0,0,0,223
8,0,0,0,0,222
9,0,0,0,0,222
10,0,0,0,0,222
11,0,0,0,0,221
12,0,0,0,0,220
13,0,0,0,0,217
14,0,0,0,0,214
15,0,0,0,0,212
0,0,0,0,0,211
1,0,0,0,0,209
2,0,0,0,0,207
3,0,0,0,0,206
4,0,0,0,0,204
5,0,0,0,0,203
6,0,0,0,0,202
7,0,0,0,0,201
8,0,0,0,0,199
9,0,0,0,0,198
10,0,0,0,0,197
11,0,0,0,0,200
12,0,0,0,0,206
13,0,0,0,0,209
14,0,0,0,0,206
15,0,0,0,0,203
0,0,0,0,0,200
1,0,0,0,0,201
2,0,0,0,0,207
3,0,0,0,0,212
4,0,0,0,0,216
5,0,0,0,0,220
6,0,0,0,0,222
7,0,0,0,0,225
8,0,0,0,0,226
9,0,0,0,0,228
10,0,0,0,0,229
11,0,0,0,0,230
12,0,0,0,0,231
13,0,0,0,0,231
14,0,0,0,0,232
15,0,0,0,0,233
0,0,0,0,0,233
1,0,0,0,0,233
2,0,0,0,0,233
3,0,0,0,0,234
4,0,0,0,0,234
5,0,0,0,0,234
6,0,0,0,0,234
7,0,0,0,0,235
8,0,0,0,0,234
9,0,0,0,0,235
10,0,0,0,0,234
11,0,0,0,0,235
12,0,0,0,0,235
13,0,0,0,0,235
14,0,0,0,0,235
15,0,0,0,0,235
0,0,0,0,0,235
1,0,0,0,0,235
2,0,0,0,0,235
3,0,0,0,0,235
4,0,0,0,0,235
5,0,0,0,0,235
6,0,0,0,0,235
7,0,0,0,0,235
8,0,0,0,0,235
9,0,0,0,0,235
10,0,0,0,0,235
11,0,0,0,0,235
12,0,0,0,0,235
13,0,0,0,0,235
14,0,0,0,0,234
15,0,0,0,0,234
0,0,0,0,0,234
1,0,0,0,0,234
2,0,0,0,0,234
3,0,0,0,0,234
4,0,0,0,0,234
5,0,0,0,0,234
6,0,0,0,0,234
7,0,0,0,0,234
8,0,0,0,0,234
9,0,0,0,0,234
10,0,0,0,0,234
11,0,0,0,0,234
12,0,0,0,0,234
13,0,0,0,0,234
14,0,0,0,0,234
15,0,0,0,0,234
0,0,0,0,0,234
1,0,0,0,0,234
2,0,0,0,0,234
3,0,0,0,0,234
4,0,0,0,0,234
5,0,0,0,0,234
6,0,0,0,0,234
7,0,0,0,0,234
8,0,0,0,0,234
9,0,0,0,0,234
10,0,0,0,0,234
11,0,0,0,0,235
12,0,0,0,0,234
13,0,0,0,0,234
14,0,0,0,0,235
15,0,0,0,0,235
0,0,0,0,0,235
1,0,0,0,0,235
2,0,0,0,0,235
3,0,0,0,0,235
4,0,0,0,0,235
5,0,0,0,0,235
6,0,0,0,0,235
7,0,0,0,0,235
8,0,0,0,0,235
9,0,0,0,0,235
10,0,0,0,0,235
11,0,0,0,0,235
12,0,0,0,0,235
13,0,0,0,0,235
14,0,0,0,0,235
15,0,0,0,0,235
0,0,0,0,0,235
1,0,0,0,0,235
2,0,0,0,0,235
3,0,0,0,0,235
4,0,0,0,0,235
5,0,0,0,0,235
6,0,0,0,0,235
7,0,0,0,0,235
8,0,0,0,0,235
9,0,0,0,0,235
10,0,0,0,0,235
11,0,0,0,0,235
12,0,0,0,0,235
13,0,0,0,0,235
14,0,0,0,0,235
15,0,0,0,0,235
0,0,0,0,0,235
1,0,0,0,0,235
2,0,0,0,0,235
3,0,0,0,0,235
4,0,0,0,0,235
5,0,0,0,0,235
6,0,0,0,0,235
7,0,0,0,0,235
8,0,0,0,0,235
9,0,0,0,0,235
10,0,0,0,0,235
11,0,0,0,0,235
12,0,0,0,0,235
13,0,0,0,0,235
14,0,0,0,0,235
15,0,0,0,0,235
0,0,0,0,0,235
1,0,0,0,0,235
2,0,0,0,0,235
3,0,0,0,0,236
4,0,0,0,0,235
5,0,0,0,0,236
6,0,0,0,0,236
7,0,0,0,0,236
8,0,0,0,0,236
9,0,0,0,0,236
10,0,0,0,0,236
11,0,0,0,0,236
12,0,0,0,0,236
13,0,0,0,0,236
14,0,0,0,0,236
15,0,0,0,0,236
0,0,0,0,0,236
1,0,0,0,0,236
2,0,0,0,0,236
3,0,0,0,0,236
4,0,0,0,0,236
5,0,0,0,0,236
6,0,0,0,0,236
7,0,0,0,0,236
8,0,0,0,0,236
9,0,0,0,0,236
10,0,0,0,0,236
11,0,0,0,0,236
12,0,0,0,0,236
13,0,0,0,0,236
14,0,0,0,0,236
15,0,0,0,0,236
0,0,0,0,0,236
1,0,0,0,0,236
2,0,0,0,0,236
3,0,0,0,0,236
4,0,0,0,0,236
5,0,0,0,0,236
6,0,0,0,0,236
7,0,0,0,0,236
8,0,0,0,0,236
9,0,0,0,0,236
10,0,0,0,0,236
11,0,0,0,0,236
12,0,0,0,0,236
13,0,0,0,0,236
14,0,0,0,0,236
15,0,0,0,0,236
0,0,0,0,0,236
1,0,0,0,0,236
2,0,0,0,0,236
3,0,0,0,0,236
4,0,0,0,0,236
5,0,0,0,0,236
6,0,0,0,0,236
7,0,0,0,0,236
8,0,0,0,0,236
9,0,0,0,0,236
10,0,0,0,0,236
11,0,0,0,0,236
12,0,0,0,0,236
13,0,0,0,0,236
14,0,0,0,0,236
15,0,0,0,0,236
0,0,0,0,0,236
1,0,0,0,0,236
2,0,0,0,0,236
3,0,0,0,0,236
4,0,0,0,0,236
5,0,0,0,0,236
6,0,0,0,0,236
7,0,0,0,0,236
8,0,0,0,0,236
9,0,0,0,0,236
10,0,0,0,0,236
11,0,0,0,0,236
12,0,0,0,0,236
13,0,0,0,0,236
14,0,0,0,0,236
15,0,0,0,0,236
0,0,0,0,0,236
1,0,0,0,0,236
2,0,0,0,0,236
3,0,0,0,0,236
4,0,0,0,0,236
5,0,0,0,0,236
6,0,0,0,0,236
7,0,0,0,0,236
8,0,0,0,0,236
9,0,0,0,0,236
10,0,0,0,0,236
11,0,0,0,0,236
12,0,0,0,0,236
13,0,0,0,0,236
14,0,0,0,0,236
15,0,0,0,0,236
0,0,0,0,0,236
1,0,0,0,0,236
2,0,0,0,0,236
3,0,0,0,0,236
4,0,0,0,0,236
5,0,0,0,0,236
6,0,0,0,0,236
7,0,0,0,0,236
8,0,0,0,0,236
9,0,0,0,0,236
10,0,0,0,0,236
11,0,0,0,0,236
12,0,0,0,0,236
13,0,0,0,0,236
14,0,0,0,0,236
15,0,0,0,0,236
0,0,0,0,0,236
1,0,0,0,0,236
2,0,0,0,0,236
3,0,0,0,0,236
4,0,0,0,0,236
5,0,0,0,0,236
6,0,0,0,0,236
7,0,0,0,0,236
8,0,0,0,0,236
9,0,0,0,0,236
10,0,0,0,0,236
11,0,0,0,0,236
12,0,0,0,0,236
13,0,0,0,0,236
14,0,0,0,0,236
15,0,0,0,0,236
0,0,0,0,0,236
1,0,0,0,0,236
2,0,0,0,0,236
3,0,0,0,0,236
4,0,0,0,0,236
5,0,0,0,0,236
6,0,0,0,0,236
7,0,0,0,0,236
8,0,0,0,0,236
9,0,0,0,0,236
10,0,0,0,0,236
11,0,0,0,0,236
12,0,0,0,0,236
13,0,0,0,0,236
14,0,0,0,0,236
15,0,0,0,0,236
0,0,0,0,0,236
1,0,0,0,0,236
2,0,0,0,0,236
3,0,0,0,0,236
4,0,0,0,0,236
5,0,0,0,0,236
6,0,0,0,0,236
7,0,0,0,0,236
8,0,0,0,0,235
9,0,0,0,0,235
10,0,0,0,0,235
11,0,0,0,0,236
12,0,0,0,0,235
13,0,0,0,0,235
14,0,0,0,0,235
15,0,0,0,0,235
0,0,0,0,0,235
1,0,0,0,0,235
2,0,0,0,0,235
3,0,0,0,0,235
4,0,0,0,0,235
5,0,0,0,0,235
6,0,0,0,0,235
7,0,0,0,0,235
8,0,0,0,0,235
9,0,0,0,0,235
10,0,0,0,0,235
11,0,0,0,0,235
12,0,0,0,0,235
13,0,0,0,0,235
14,0,0,0,0,235
15,0,0,0,0,235
0,0,0,0,0,235
1,0,0,0,0,235
2,0,0,0,0,235
3,0,0,0,0,235
4,0,0,0,0,235
5,0,0,0,0,235
6,0,0,0,0,235
7,0,0,0,0,235
8,0,0,0,0,235
9,0,0,0,0,235
10,0,0,0,0,235
11,0,0,0,0,235
12,0,0,0,0,234
13,0,0,0,0,234
14,0,0,0,0,234
15,0,0,0,0,235
0,0,0,0,0,234
1,0,0,0,0,234
2,0,0,0,0,234
3,0,0,0,0,234
4,0,0,0,0,234
5,0,0,0,0,234
6,0,0,0,0,234
7,0,0,0,0,234
8,0,0,0,0,234
9,0,0,0,0,234
10,0,0,0,0,234
11,0,0,0,0,234
12,0,0,0,0,234
13,0,0,0,0,234
14,0,0,0,0,234
15,0,0,0,0,234
0,0,0,0,0,234
1,0,0,0,0,234
2,0,0,0,0,234
3,0,0,0,0,234
4,0,0,0,0,234
5,0,0,0,0,234
6,0,0,0,0,234
7,0,0,0,0,234
8,0,0,0,0,234
9,0,0,0,0,234
10,0,0,0,0,234
11,0,0,0,0,234
12,0,0,0,0,234
13,0,0,0,0,234
14,0,0,0,0,234
15,0,0,0,0,234
0,0,0,0,0,233
1,0,0,0,0,233
2,0,0,0,0,233
3,0,0,0,0,233
4,0,0,0,0,233
5,0,0,0,0,233
6,0,0,0,0,233
7,0,0,0,0,233
8,0,0,0,0,233
9,0,0,0,0,233
10,0,0,0,0,233
11,0,0,0,0,233
12,0,0,0,0,233
13,0,0,0,0,233
14,0,0,0,0,233
15,0,0,0,0,233
0,0,0,0,0,233
1,0,0,0,0,233
2,0,0,0,0,233
3,0,0,0,0,233
4,0,0,0,0,233
5,0,0,0,0,233
6,0,0,0,0,233
7,0,0,0,0,233
8,0,0,0,0,233
9,0,0,0,0,233
10,0,0,0,0,233
11,0,0,0,0,233
12,0,0,0,0,233
13,0,0,0,0,233
14,0,0,0,0,233
15,0,0,0,0,233
0,0,0,0,0,233
1,0,0,0,0,233
2,0,0,0,0,233
3,0,0,0,0,233
4,0,0,0,0,233
5,0,0,0,0,233
6,0,0,0,0,233
7,0,0,0,0,233
8,0,0,0,0,233
9,0,0,0,0,233
10,0,0,0,0,233
11,0,0,0,0,233
12,0,0,0,0,233
13,0,0,0,0,233
14,0,0,0,0,232
15,0,0,0,0,233
0,0,0,0,0,232
1,0,0,0,0,232
2,0,0,0,0,232
3,0,0,0,0,232
4,0,0,0,0,232
5,0,0,0,0,232
6,0,0,0,0,232
7,0,0,0,0,233
8,0,0,0,0,232
9,0,0,0,0,232
10,0,0,0,0,232
11,0,0,0,0,233
12,0,0,0,0,232
13,0,0,0,0,232
14,0,0,0,0,232
15,0,0,0,0,232
0,0,0,0,0,232
1,0,0,0,0,232
2,0,0,0,0,232
3,0,0,0,0,232
4,0,0,0,0,232
5,0,0,0,0,232
6,0,0,0,0,232
7,0,0,0,0,232
8,0,0,0,0,232
9,0,0,0,0,232
10,0,0,0,0,232
11,0,0,0,0,232
12,0,0,0,0,232
13,0,0,0,0,232
14,0,0,0,0,232
15,0,0,0,0,233
0,0,0,0,0,232
1,0,0,0,0,232
2,0,0,0,0,232
3,0,0,0,0,232
4,0,0,0,0,232
5,0,0,0,0,232
6,0,0,0,0,232
7,0,0,0,0,233
8,0,0,0,0,232
9,0,0,0,0,232
10,0,0,0,0,232
11,0,0,0,0,233
12,0,0,0,0,232
13,0,0,0,0,232
14,0,0,0,0,232
15,0,0,0,0,233
0,0,0,0,0,232
1,0,0,0,0,232
2,0,0,0,0,232
3,0,0,0,0,233
4,0,0,0,0,232
5,0,0,0,0,232
6,0,0,0,0,232
7,0,0,0,0,233
8,0,0,0,0,232
9,0,0,0,0,233
10,0,0,0,0,232
11,0,0,0,0,233
12,0,0,0,0,233
13,0,0,0,0,233
14,0,0,0,0,233
15,0,0,0,0,233
0,0,0,0,0,233
1,0,0,0,0,233
2,0,0,0,0,233
3,0,0,0,0,233
4,0,0,0,0,233
5,0,0,0,0,233
6,0,0,0,0,233
7,0,0,0,0,233
8,0,0,0,0,233
9,0,0,0,0,233
10,0,0,0,0,233
11,0,0,0,0,233
12,0,0,0,0,233
13,0,0,0,0,233
14,0,0,0,0,233
15,0,0,0,0,233
0,0,0,0,0,233
1,0,0,0,0,233
2,0,0,0,0,233
3,0,0,0,0,233
4,0,0,0,0,233
5,0,0,0,0,233
6,0,0,0,0,233
7,0,0,0,0,233
8,0,0,0,0,233
9,0,0,0,0,233
10,0,0,0,0,233
11,0,0,0,0,233
12,0,0,0,0,233
13,0,0,0,0,233
14,0,0,0,0,233
15,0,0,0,0,233
0,0,0,0,0,233
1,0,0,0,0,233
2,0,0,0,0,233
3,0,0,0,0,233
4,0,0,0,0,233
5,0,0,0,0,233
6,0,0,0,0,233
7,0,0,0,0,233
8,0,0,0,0,233
9,0,0,0,0,233
10,0,0,0,0,233
11,0,0,0,0,233
12,0,0,0,0,233
13,0,0,0,0,233
14,0,0,0,0,233
15,0,0,0,0,233
0,0,0,0,0,233
1,0,0,0,0,233
2,0,0,0,0,233
3,0,0,0,0,233
4,0,0,0,0,233
5,0,0,0,0,233
6,0,0,0,0,233
7,0,0,0,0,233
8,0,0,0,0,233
9,0,0,0,0,233
10,0,0,0,0,233
11,0,0,0,0,233
12,0,0,0,0,233
13,0,0,0,0,233
14,0,0,0,0,233
15,0,0,0,0,234
0,0,0,0,0,233
1,0,0,0,0,233
2,0,0,0,0,233
3,0,0,0,0,234
4,0,0,0,0,233
5,0,0,0,0,233
6,0,0,0,0,233
7,0,0,0,0,234
8,0,0,0,0,233
9,0,0,0,0,233
10,0,0,0,0,233
11,0,0,0,0,234
12,0,0,0,0,233
13,0,0,0,0,233
14,0,0,0,0,233
15,0,0,0,0,233
0,0,0,0,0,233
1,0,0,0,0,233
2,0,0,0,0,233
3,0,0,0,0,233
4,0,0,0,0,233
5,0,0,0,0,233
6,0,0,0,0,233
7,0,0,0,0,233
8,0,0,0,0,233
9,0,0,0,0,233
10,0,0,0,0,233
11,0,0,0,0,233
12,0,0,0,0,233
13,0,0,0,0,233
14,0,0,0,0,233
15,0,0,0,0,233
0,0,0,0,0,233
1,0,0,0,0,233
2,0,0,0,0,233
3,0,0,0,0,233
4,0,0,0,0,233
5,0,0,0,0,233
6,0,0,0,0,233
7,0,0,0,0,233
8,0,0,0,0,233
9,0,0,0,0,233
10,0,0,0,0,233
11,0,0,0,0,233
12,0,0,0,0,233
13,0,0,0,0,233
14,0,0,0,0,233
15,0,0,0,0,233
0,0,0,0,0,233
1,0,0,0,0,233
2,0,0,0,0,233
3,0,0,0,0,233
4,0,0,0,0,233
5,0,0,0,0,233
6,0,0,0,0,233
7,0,0,0,0,233
8,0,0,0,0,233
9,0,0,0,0,229
10,0,0,0,0,220
11,0,0,0,0,212
12,0,0,0,0,205
13,0,0,0,0,199
14,0,0,0,0,195
15,0,0,0,0,190
0,0,0,0,0,187
1,0,0,0,0,183
2,0,0,0,0,180
3,0,0,0,0,178
4,0,0,0,0,175
5,0,0,0,0,174
6,0,0,0,0,172
7,0,0,0,0,171
8,0,0,0,0,170
9,0,0,0,0,179
10,0,0,0,0,188
11,0,0,0,0,195
12,0,0,0,0,202
13,0,0,0,0,207
14,0,0,0,0,211
15,0,0,0,0,215
0,0,0,0,0,217
1,0,0,0,0,220
2,0,0,0,0,222
3,0,0,0,0,224
4,0,0,0,0,225
5,0,0,0,0,226
6,0,0,0,0,227
7,0,0,0,0,228
8,0,0,0,0,228
9,0,0,0,0,229
10,0,0,0,0,229
11,0,0,0,0,230
12,0,0,0,0,230
13,0,0,0,0,230
14,0,0,0,0,230
15,0,0,0,0,231
0,0,0,0,0,231
1,0,0,0,0,231
2,0,0,0,0,231
3,0,0,0,0,231
4,0,0,0,0,231
5,0,0,0,0,231
6,0,0,0,0,231
7,0,0,0,0,231
8,0,0,0,0,231
9,0,0,0,0,231
10,0,0,0,0,231
11,0,0,0,0,231
12,0,0,0,0,231
13,0,0,0,0,231
14,0,0,0,0,231
15,0,0,0,0,231
0,0,0,0,0,231
1,0,0,0,0,231
2,0,0,0,0,231
3,0,0,0,0,231
4,0,0,0,0,231
5,0,0,0,0,231
6,0,0,0,0,231
7,0,0,0,0,231
8,0,0,0,0,230
9,0,0,0,0,230
10,0,0,0,0,230
11,0,0,0,0,231
12,0,0,0,0,230
13,0,0,0,0,230
14,0,0,0,0,230
15,0,0,0,0,230
0,0,0,0,0,230
1,0,0,0,0,230
2,0,0,0,0,230
3,0,0,0,0,230
4,0,0,0,0,230
5,0,0,0,0,230
6,0,0,0,0,230
7,0,0,0,0,230
8,0,0,0,0,230
9,0,0,0,0,230
10,0,0,0,0,230
11,0,0,0,0,230
12,0,0,0,0,230
13,0,0,0,0,230
14,0,0,0,0,230
15,0,0,0,0,230
0,0,0,0,0,230
1,0,0,0,0,230
2,0,0,0,0,229
3,0,0,0,0,230
4,0,0,0,0,229
5,0,0,0,0,229
6,0,0,0,0,229
7,0,0,0,0,229
8,0,0,0,0,229
9,0,0,0,0,229
10,0,0,0,0,229
11,0,0,0,0,229
12,0,0,0,0,229
13,0,0,0,0,229
14,0,0,0,0,229
15,0,0,0,0,229
0,0,0,0,0,229
1,0,0,0,0,229
2,0,0,0,0,229
3,0,0,0,0,229
4,0,0,0,0,229
5,0,0,0,0,229
6,0,0,0,0,228
7,0,0,0,0,229
8,0,0,0,0,228
9,0,0,0,0,228
10,0,0,0,0,228
11,0,0,0,0,228
12,0,0,0,0,228
13,0,0,0,0,228
14,0,0,0,0,228
15,0,0,0,0,228
0,0,0,0,0,228
1,0,0,0,0,228
2,0,0,0,0,228
3,0,0,0,0,228
4,0,0,0,0,228
5,0,0,0,0,228
6,0,0,0,0,228
7,0,0,0,0,228
8,0,0,0,0,228
9,0,0,0,0,228
10,0,0,0,0,228
11,0,0,0,0,228
12,0,0,0,0,228
13,0,0,0,0,228
14,0,0,0,0,228
15,0,0,0,0,228
0,0,0,0,0,228
1,0,0,0,0,228
2,0,0,0,0,228
3,0,0,0,0,228
4,0,0,0,0,228
5,0,0,0,0,228
6,0,0,0,0,227
7,0,0,0,0,228
8,0,0,0,0,227
9,0,0,0,0,227
10,0,0,0,0,227
11,0,0,0,0,228
12,0,0,0,0,227
13,0,0,0,0,227
14,0,0,0,0,227
15,0,0,0,0,227
0,0,0,0,0,227
1,0,0,0,0,227
2,0,0,0,0,227
3,0,0,0,0,227
4,0,0,0,0,227
5,0,0,0,0,227
6,0,0,0,0,227
7,0,0,0,0,227
8,0,0,0,0,227
9,0,0,0,0,227
10,0,0,0,0,227
11,0,0,0,0,227
12,0,0,0,0,227
13,0,0,0,0,227
14,0,0,0,0,227
15,0,0,0,0,227
0,0,0,0,0,227
1,0,0,0,0,227
2,0,0,0,0,227
3,0,0,0,0,227
4,0,0,0,0,227
5,0,0,0,0,227
6,0,0,0,0,227
7,0,0,0,0,227
8,0,0,0,0,227
9,0,0,0,0,227
10,0,0,0,0,227
11,0,0,0,0,227
12,0,0,0,0,227
13,0,0,0,0,227
14,0,0,0,0,227
15,0,0,0,0,227
0,0,0,0,0,227
1,0,0,0,0,227
2,0,0,0,0,227
3,0,0,0,0,227
4,0,0,0,0,227
5,0,0,0,0,227
6,0,0,0,0,227
7,0,0,0,0,227
8,0,0,0,0,227
9,0,0,0,0,227
10,0,0,0,0,227
11,0,0,0,0,227
12,0,0,0,0,227
13,0,0,0,0,227
14,0,0,0,0,227
15,0,0,0,0,227
0,0,0,0,0,227
1,0,0,0,0,227
2,0,0,0,0,227
3,0,0,0,0,227
4,0,0,0,0,227
5,0,0,0,0,227
6,0,0,0,0,227
7,0,0,0,0,227
8,0,0,0,0,227
9,0,0,0,0,227
10,0,0,0,0,227
11,0,0,0,0,228
12,0,0,0,0,227
13,0,0,0,0,228
14,0,0,0,0,228
15,0,0,0,0,228
0,0,0,0,0,228
1,0,0,0,0,228
2,0,0,0,0,228
3,0,0,0,0,228
4,0,0,0,0,228
5,0,0,0,0,228
6,0,0,0,0,228
7,0,0,0,0,228
8,0,0,0,0,228
9,0,0,0,0,228
10,0,0,0,0,229
11,0,0,0,0,229
12,0,0,0,0,229
13,0,0,0,0,229
14,0,0,0,0,229
15,0,0,0,0,229
0,0,0,0,0,229
1,0,0,0,0,229
2,0,0,0,0,229
3,0,0,0,0,230
4,0,0,0,0,230
5,0,0,0,0,229
6,0,0,0,0,230
7,0,0,0,0,230
8,0,0,0,0,230
9,0,0,0,0,230
10,0,0,0,0,230
11,0,0,0,0,230
12,0,0,0,0,230
13,0,0,0,0,230
14,0,0,0,0,230
15,0,0,0,0,231
0,0,0,0,0,231
1,0,0,0,0,231
2,0,0,0,0,231
3,0,0,0,0,231
4,0,0,0,0,231
5,0,0,0,0,231
6,0,0,0,0,231
7,0,0,0,0,231
8,0,0,0,0,231
9,0,0,0,0,231
10,0,0,0,0,231
11,0,0,0,0,231
12,0,0,0,0,231
13,0,0,0,0,231
14,0,0,0,0,231
15,0,0,0,0,232
0,0,0,0,0,232
1,0,0,0,0,232
2,0,0,0,0,232
3,0,0,0,0,232
4,0,0,0,0,232
5,0,0,0,0,232
6,0,0,0,0,232
7,0,0,0,0,233
8,0,0,0,0,233
9,0,0,0,0,233
10,0,0,0,0,233
11,0,0,0,0,233
12,0,0,0,0,233
13,0,0,0,0,233
14,0,0,0,0,233
15,0,0,0,0,233
0,0,0,0,0,233
1,0,0,0,0,233
2,0,0,0,0,233
3,0,0,0,0,234
4,0,0,0,0,234
5,0,0,0,0,234
6,0,0,0,0,234
7,0,0,0,0,234
8,0,0,0,0,234
9,0,0,0,0,234
10,0,0,0,0,235
11,0,0,0,0,235
12,0,0,0,0,235
13,0,0,0,0,235
14,0,0,0,0,235
15,0,0,0,0,235
0,0,0,0,0,235
1,0,0,0,0,235
2,0,0,0,0,235
3,0,0,0,0,236
4,0,0,0,0,236
5,0,0,0,0,236
6,0,0,0,0,236
7,0,0,0,0,236
8,0,0,0,0,236
9,0,0,0,0,236
10,0,0,0,0,236
11,0,0,0,0,236
12,0,0,0,0,236
13,0,0,0,0,236
14,0,0,0,0,237
15,0,0,0,0,237
0,0,0,0,0,237
1,0,0,0,0,237
2,0,0,0,0,237
3,0,0,0,0,238
4,0,0,0,0,238
5,0,0,0,0,238
6,0,0,0,0,238
7,0,0,0,0,238
8,0,0,0,0,238
9,0,0,0,0,238
10,0,0,0,0,238
11,0,0,0,0,238
12,0,0,0,0,238
13,0,0,0,0,238
14,0,0,0,0,239
15,0,0,0,0,239
0,0,0,0,0,239
1,0,0,0,0,239
2,0,0,0,0,239
3,0,0,0,0,239
4,0,0,0,0,239
5,0,0,0,0,239
6,0,0,0,0,239
7,0,0,0,0,239
8,0,0,0,0,239
9,0,0,0,0,240
10,0,0,0,0,240
11,0,0,0,0,240
12,0,0,0,0,240
13,0,0,0,0,240
14,0,0,0,0,240
15,0,0,0,0,240
0,0,0,0,0,240
1,0,0,0,0,240
2,0,0,0,0,240
3,0,0,0,0,240
4,0,0,0,0,240
5,0,0,0,0,240
6,0,0,0,0,240
7,0,0,0,0,241
8,0,0,0,0,240
9,0,0,0,0,241
10,0,0,0,0,241
11,0,0,0,0,241
12,0,0,0,0,241
13,0,0,0,0,241
14,0,0,0,0,241
15,0,0,0,0,241
0,0,0,0,0,241
1,0,0,0,0,241
2,0,0,0,0,241
3,0,0,0,0,241
4,0,0,0,0,241
5,0,0,0,0,241
6,0,0,0,0,241
7,0,0,0,0,241
8,0,0,0,0,241
9,0,0,0,0,241
10,0,0,0,0,241
11,0,0,0,0,241
12,0,0,0,0,241
13,0,0,0,0,241
14,0,0,0,0,242
15,0,0,0,0,242
0,0,0,0,0,242
1,0,0,0,0,242
2,0,0,0,0,242
3,0,0,0,0,242
4,0,0,0,0,242
5,0,0,0,0,242
6,0,0,0,0,242
7,0,0,0,0,242
8,0,0,0,0,242
9,0,0,0,0,241
10,0,0,0,0,242
11,0,0,0,0,242
12,0,0,0,0,242
13,0,0,0,0,242
14,0,0,0,0,242
15,0,0,0,0,242
0,0,0,0,0,242
1,0,0,0,0,242
2,0,0,0,0,242
3,0,0,0,0,242
4,0,0,0,0,242
5,0,0,0,0,242
6,0,0,0,0,242
7,0,0,0,0,243
8,0,0,0,0,243
9,0,0,0,0,243
10,0,0,0,0,243
11,0,0,0,0,243
12,0,0,0,0,243
13,0,0,0,0,243
14,0,0,0,0,243
15,0,0,0,0,243
0,0,0,0,0,243
1,0,0,0,0,243
2,0,0,0,0,243
3,0,0,0,0,243
4,0,0,0,0,243
5,0,0,0,0,243
6,0,0,0,0,243
7,0,0,0,0,243
8,0,0,0,0,243
9,0,0,0,0,244
10,0,0,0,0,244
11,0,0,0,0,244
12,0,0,0,0,244
13,0,0,0,0,244
14,0,0,0,0,244
15,0,0,0,0,244
0,0,0,0,0,244
1,0,0,0,0,245
2,0,0,0,0,245
3,0,0,0,0,245
4,0,0,0,0,245
5,0,0,0,0,245
6,0,0,0,0,245
7,0,0,0,0,246
8,0,0,0,0,246
9,0,0,0,0,246
10,0,0,0,0,246
11,0,0,0,0,246
12,0,0,0,0,246
13,0,0,0,0,246
14,0,0,0,0,247
15,0,0,0,0,247
0,0,0,0,0,247
1,0,0,0,0,247
2,0,0,0,0,247
3,0,0,0,0,248
4,0,0,0,0,248
5,0,0,0,0,248
6,0,0,0,0,248
7,0,0,0,0,248
8,0,0,0,0,248
9,0,0,0,0,248
10,0,0,0,0,248
11,0,0,0,0,249
12,0,0,0,0,249
13,0,0,0,0,249
14,0,0,0,0,249
15,0,0,0,0,249
0,0,0,0,0,249
1,0,0,0,0,250
2,0,0,0,0,250
3,0,0,0,0,250
4,0,0,0,0,250
5,0,0,0,0,250
6,0,0,0,0,251
7,0,0,0,0,251
8,0,0,0,0,251
9,0,0,0,0,251
10,0,0,0,0,251
11,0,0,0,0,252
12,0,0,0,0,252
13,0,0,0,0,252
14,0,0,0,0,252
15,0,0,0,0,252
0,0,0,0,0,252
1,0,0,0,0,252
2,0,0,0,0,252
3,0,0,0,0,253
4,0,0,0,0,253
5,0,0,0,0,253
6,0,0,0,0,253
7,0,0,0,0,253
8,0,0,0,0,254
9,0,0,0,0,254
10,0,0,0,0,254
11,0,0,0,0,254
12,0,0,0,0,254
13,0,0,0,0,254
14,0,0,0,0,254
15,0,0,0,0,255
0,0,0,0,0,255
1,0,0,0,0,255
2,0,0,0,0,255
3,0,0,0,0,255
4,0,0,0,0,255
5,0,0,0,0,255
6,0,0,0,0,255
7,0,0,0,0,255
8,0,0,0,0,255
9,0,0,0,0,255
10,0,0,0,0,255
11,0,0,0,0,256
12,0,0,0,0,256
13,0,0,0,0,256
14,0,0,0,0,256
15,0,0,0,0,256
0,0,0,0,0,256
1,0,0,0,0,256
2,0,0,0,0,256
3,0,0,0,0,257
4,0,0,0,0,256
5,0,0,0,0,256
6,0,0,0,0,257
7,0,0,0,0,257
8,0,0,0,0,257
9,0,0,0,0,257
10,0,0,0,0,257
11,0,0,0,0,257
12,0,0,0,0,257
13,0,0,0,0,257
14,0,0,0,0,257
15,0,0,0,0,257
0,0,0,0,0,257
1,0,0,0,0,257
2,0,0,0,0,258
3,0,0,0,0,258
4,0,0,0,0,258
5,0,0,0,0,258
6,0,0,0,0,258
7,0,0,0,0,258
8,0,0,0,0,258
9,0,0,0,0,258
10,0,0,0,0,258
11,0,0,0,0,258
12,0,0,0,0,258
13,0,0,0,0,258
14,0,0,0,0,259
15,0,0,0,0,259
0,0,0,0,0,259
1,0,0,0,0,259
2,0,0,0,0,259
3,0,0,0,0,259
4,0,0,0,0,259
5,0,0,0,0,259
6,0,0,0,0,259
7,0,0,0,0,259
8,0,0,0,0,259
9,0,0,0,0,259
10,0,0,0,0,260
11,0,0,0,0,260
12,0,0,0,0,260
13,0,0,0,0,260
14,0,0,0,0,260
15,0,0,0,0,260
0,0,0,0,0,260
1,0,0,0,0,260
2,0,0,0,0,261
3,0,0,0,0,261
4,0,0,0,0,261
5,0,0,0,0,261
6,0,0,0,0,261
7,0,0,0,0,261
8,0,0,0,0,261
9,0,0,0,0,262
10,0,0,0,0,262
11,0,0,0,0,262
12,0,0,0,0,262
13,0,0,0,0,262
14,0,0,0,0,262
15,0,0,0,0,262
0,0,0,0,0,263
1,0,0,0,0,263
2,0,0,0,0,263
3,0,0,0,0,263
4,0,0,0,0,263
5,0,0,0,0,263
6,0,0,0,0,263
7,0,0,0,0,263
8,0,0,0,0,263
9,0,0,0,0,263
10,0,0,0,0,263
11,0,0,0,0,264
12,0,0,0,0,264
13,0,0,0,0,264
14,0,0,0,0,264
15,0,0,0,0,264
0,0,0,0,0,264
1,0,0,0,0,264
2,0,0,0,0,264
3,0,0,0,0,265
4,0,0,0,0,265
5,0,0,0,0,265
6,0,0,0,0,265
7,0,0,0,0,265
8,0,0,0,0,265
9,0,0,0,0,265
10,0,0,0,0,265
11,0,0,0,0,265
12,0,0,0,0,265
13,0,0,0,0,265
14,0,0,0,0,266
15,0,0,0,0,266
0,0,0,0,0,266
1,0,0,0,0,266
2,0,0,0,0,266
3,0,0,0,0,266
4,0,0,0,0,266
5,0,0,0,0,266
6,0,0,0,0,267
7,0,0,0,0,267
8,0,0,0,0,267
9,0,0,0,0,267
10,0,0,0,0,267
11,0,0,0,0,267
12,0,0,0,0,267
13,0,0,0,0,267
14,0,0,0,0,267
15,0,0,0,0,267
0,0,0,0,0,267
1,0,0,0,0,267
2,0,0,0,0,267
3,0,0,0,0,268
4,0,0,0,0,268
5,0,0,0,0,268
6,0,0,0,0,268
7,0,0,0,0,268
8,0,0,0,0,268
9,0,0,0,0,268
10,0,0,0,0,268
11,0,0,0,0,268
12,0,0,0,0,268
13,0,0,0,0,268
14,0,0,0,0,268
15,0,0,0,0,268
0,0,0,0,0,268
1,0,0,0,0,268
2,0,0,0,0,269
3,0,0,0,0,269
4,0,0,0,0,269
5,0,0,0,0,269
6,0,0,0,0,269
7,0,0,0,0,269
8,0,0,0,0,269
9,0,0,0,0,269
10,0,0,0,0,269
11,0,0,0,0,269
12,0,0,0,0,269
13,0,0,0,0,269
14,0,0,0,0,270
15,0,0,0,0,270
0,0,0,0,0,270
1,0,0,0,0,270
2,0,0,0,0,270
3,0,0,0,0,270
4,0,0,0,0,270
5,0,0,0,0,270
6,0,0,0,0,270
7,0,0,0,0,271
8,0,0,0,0,270
9,0,0,0,0,270
10,0,0,0,0,271
11,0,0,0,0,271
12,0,0,0,0,271
13,0,0,0,0,271
14,0,0,0,0,271
15,0,0,0,0,271
0,0,0,0,0,271
1,0,0,0,0,271
2,0,0,0,0,271
3,0,0,0,0,271
4,0,0,0,0,271
5,0,0,0,0,271
6,0,0,0,0,271
7,0,0,0,0,271
8,0,0,0,0,271
9,0,0,0,0,271
10,0,0,0,0,271
11,0,0,0,0,271
12,0,0,0,0,271
13,0,0,0,0,272
14,0,0,0,0,272
15,0,0,0,0,272
0,0,0,0,0,272
1,0,0,0,0,272
2,0,0,0,0,272
3,0,0,0,0,272
4,0,0,0,0,272
5,0,0,0,0,272
6,0,0,0,0,272
7,0,0,0,0,272
8,0,0,0,0,272
9,0,0,0,0,272
10,0,0,0,0,272
11,0,0,0,0,272
12,0,0,0,0,272
13,0,0,0,0,272
14,0,0,0,0,272
15,0,0,0,0,272
0,0,0,0,0,272
1,0,0,0,0,272
2,0,0,0,0,272
3,0,0,0,0,272
4,0,0,0,0,272
5,0,0,0,0,272
6,0,0,0,0,272
7,0,0,0,0,272
8,0,0,0,0,272
9,0,0,0,0,272
10,0,0,0,0,272
11,0,0,0,0,272
12,0,0,0,0,272
13,0,0,0,0,272
14,0,0,0,0,272
15,0,0,0,0,272
0,0,0,0,0,272
1,0,0,0,0,272
2,0,0,0,0,272
3,0,0,0,0,272
4,0,0,0,0,272
5,0,0,0,0,272
6,0,0,0,0,272
7,0,0,0,0,272
8,0,0,0,0,272
9,0,0,0,0,272
10,0,0,0,0,272
11,0,0,0,0,272
12,0,0,0,0,272
13,0,0,0,0,272
14,0,0,0,0,272
15,0,0,0,0,272
0,0,0,0,0,272
1,0,0,0,0,272
2,0,0,0,0,272
3,0,0,0,0,272
4,0,0,0,0,272
5,0,0,0,0,272
6,0,0,0,0,272
7,0,0,0,0,272
8,0,0,0,0,272
9,0,0,0,0,272
10,0,0,0,0,272
11,0,0,0,0,273
12,0,0,0,0,272
13,0,0,0,0,272
14,0,0,0,0,272
15,0,0,0,0,272
0,0,0,0,0,272
1,0,0,0,0,272
2,0,0,0,0,272
3,0,0,0,0,273
4,0,0,0,0,272
5,0,0,0,0,272
6,0,0,0,0,272
7,0,0,0,0,272
8,0,0,0,0,272
9,0,0,0,0,272
10,0,0,0,0,272
11,0,0,0,0,272
12,0,0,0,0,272
13,0,0,0,0,272
14,0,0,0,0,272
15,0,0,0,0,272
0,0,0,0,0,272
1,0,0,0,0,272
2,0,0,0,0,272
3,0,0,0,0,272
4,0,0,0,0,272
5,0,0,0,0,272
6,0,0,0,0,272
7,0,0,0,0,272
8,0,0,0,0,272
9,0,0,0,0,272
10,0,0,0,0,272
11,0,0,0,0,272
12,0,0,0,0,272
13,0,0,0,0,272
14,0,0,0,0,272
15,0,0,0,0,272
0,0,0,0,0,272
1,0,0,0,0,272
2,0,0,0,0,272
3,0,0,0,0,272
4,0,0,0,0,272
5,0,0,0,0,272
6,0,0,0,0,272
7,0,0,0,0,272
8,0,0,0,0,272
9,0,0,0,0,272
10,0,0,0,0,272
11,0,0,0,0,272
12,0,0,0,0,272
13,0,0,0,0,272
14,0,0,0,0,272
15,0,0,0,0,272
0,0,0,0,0,272
1,0,0,0,0,272
2,0,0,0,0,272
3,0,0,0,0,273
4,0,0,0,0,273
5,0,0,0,0,273
6,0,0,0,0,273
7,0,0,0,0,273
8,0,0,0,0,273
9,0,0,0,0,273
10,0,0,0,0,273
11,0,0,0,0,273
12,0,0,0,0,273
13,0,0,0,0,273
14,0,0,0,0,273
15,0,0,0,0,273
0,0,0,0,0,273
1,0,0,0,0,273
2,0,0,0,0,273
3,0,0,0,0,274
4,0,0,0,0,274
5,0,0,0,0,274
6,0,0,0,0,274
7,0,0,0,0,274
8,0,0,0,0,274
9,0,0,0,0,274
10,0,0,0,0,274
11,0,0,0,0,274
12,0,0,0,0,274
13,0,0,0,0,274
14,0,0,0,0,275
15,0,0,0,0,275
0,0,0,0,0,275
1,0,0,0,0,275
2,0,0,0,0,275
3,0,0,0,0,275
4,0,0,0,0,275
5,0,0,0,0,275
6,0,0,0,0,275
7,0,0,0,0,275
8,0,0,0,0,275
9,0,0,0,0,276
10,0,0,0,0,276
11,0,0,0,0,276
12,0,0,0,0,276
13,0,0,0,0,276
14,0,0,0,0,276
15,0,0,0,0,276
0,0,0,0,0,276
1,0,0,0,0,276
2,0,0,0,0,277
3,0,0,0,0,277
4,0,0,0,0,277
5,0,0,0,0,277
6,0,0,0,0,277
7,0,0,0,0,277
8,0,0,0,0,277
9,0,0,0,0,278
10,0,0,0,0,278
11,0,0,0,0,278
12,0,0,0,0,278
13,0,0,0,0,278
14,0,0,0,0,278
15,0,0,0,0,278
0,0,0,0,0,278
1,0,0,0,0,278
2,0,0,0,0,279
3,0,0,0,0,279
4,0,0,0,0,279
5,0,0,0,0,279
6,0,0,0,0,279
7,0,0,0,0,279
8,0,0,0,0,279
9,0,0,0,0,279
10,0,0,0,0,279
11,0,0,0,0,279
12,0,0,0,0,279
13,0,0,0,0,279
14,0,0,0,0,279
15,0,0,0,0,280
0,0,0,0,0,279
1,0,0,0,0,280
2,0,0,0,0,280
3,0,0,0,0,280
4,0,0,0,0,280
5,0,0,0,0,280
6,0,0,0,0,280
7,0,0,0,0,280
8,0,0,0,0,280
9,0,0,0,0,280
10,0,0,0,0,280
11,0,0,0,0,280
12,0,0,0,0,280
13,0,0,0,0,280
14,0,0,0,0,280
15,0,0,0,0,280
0,0,0,0,0,280
1,0,0,0,0,280
2,0,0,0,0,280
3,0,0,0,0,280
4,0,0,0,0,280
5,0,0,0,0,280
6,0,0,0,0,280
7,0,0,0,0,281
8,0,0,0,0,280
9,0,0,0,0,281
10,0,0,0,0,281
11,0,0,0,0,281
12,0,0,0,0,280
13,0,0,0,0,281
14,0,0,0,0,280
15,0,0,0,0,281
0,0,0,0,0,281
1,0,0,0,0,281
2,0,0,0,0,281
3,0,0,0,0,281
4,0,0,0,0,281
5,0,0,0,0,281
6,0,0,0,0,281
7,0,0,0,0,281
8,0,0,0,0,281
9,0,0,0,0,281
10,0,0,0,0,281
11,0,0,0,0,281
12,0,0,0,0,281
13,0,0,0,0,281
14,0,0,0,0,281
15,0,0,0,0,281
0,0,0,0,0,281
1,0,0,0,0,281
2,0,0,0,0,281
3,0,0,0,0,281
4,0,0,0,0,281
5,0,0,0,0,281
6,0,0,0,0,281
7,0,0,0,0,281
8,0,0,0,0,281
9,0,0,0,0,281
10,0,0,0,0,281
11,0,0,0,0,281
12,0,0,0,0,281
13,0,0,0,0,281
14,0,0,0,0,281
15,0,0,0,0,281
0,0,0,0,0,281
1,0,0,0,0,281
2,0,0,0,0,281
3,0,0,0,0,281
4,0,0,0,0,281
5,0,0,0,0,280
6,0,0,0,0,280
7,0,0,0,0,281
8,0,0,0,0,280
9,0,0,0,0,280
10,0,0,0,0,280
11,0,0,0,0,281
12,0,0,0,0,280
13,0,0,0,0,280
14,0,0,0,0,281
15,0,0,0,0,281
0,0,0,0,0,280
1,0,0,0,0,280
2,0,0,0,0,280
3,0,0,0,0,281
4,0,0,0,0,280
5,0,0,0,0,280
6,0,0,0,0,280
7,0,0,0,0,280
8,0,0,0,0,280
9,0,0,0,0,280
10,0,0,0,0,280
11,0,0,0,0,280
12,0,0,0,0,280
13,0,0,0,0,280
14,0,0,0,0,280
15,0,0,0,0,280
0,0,0,0,0,280
1,0,0,0,0,280
2,0,0,0,0,280
3,0,0,0,0,280
4,0,0,0,0,280
5,0,0,0,0,280
6,0,0,0,0,280
7,0,0,0,0,280
8,0,0,0,0,280
9,0,0,0,0,280
10,0,0,0,0,280
11,0,0,0,0,280
12,0,0,0,0,280
13,0,0,0,0,279
14,0,0,0,0,280
15,0,0,0,0,280
0,0,0,0,0,279
1,0,0,0,0,279
2,0,0,0,0,279
3,0,0,0,0,279
4,0,0,0,0,279
5,0,0,0,0,279
6,0,0,0,0,279
7,0,0,0,0,279
8,0,0,0,0,279
9,0,0,0,0,279
10,0,0,0,0,279
11,0,0,0,0,279
12,0,0,0,0,279
13,0,0,0,0,279
14,0,0,0,0,279
15,0,0,0,0,279
0,0,0,0,0,278
1,0,0,0,0,278
2,0,0,0,0,278
3,0,0,0,0,278
4,0,0,0,0,278
5,0,0,0,0,278
6,0,0,0,0,278
7,0,0,0,0,278
8,0,0,0,0,278
9,0,0,0,0,278
10,0,0,0,0,278
11,0,0,0,0,278
12,0,0,0,0,278
13,0,0,0,0,278
14,0,0,0,0,277
15,0,0,0,0,278
0,0,0,0,0,277
1,0,0,0,0,277
2,0,0,0,0,277
3,0,0,0,0,277
4,0,0,0,0,277
5,0,0,0,0,277
6,0,0,0,0,277
7,0,0,0,0,277
8,0,0,0,0,277
9,0,0,0,0,277
10,0,0,0,0,276
11,0,0,0,0,277
12,0,0,0,0,276
13,0,0,0,0,276
14,0,0,0,0,276
15,0,0,0,0,276
0,0,0,0,0,276
1,0,0,0,0,276
2,0,0,0,0,276
3,0,0,0,0,276
4,0,0,0,0,276
5,0,0,0,0,276
6,0,0,0,0,276
7,0,0,0,0,276
8,0,0,0,0,276
9,0,0,0,0,276
10,0,0,0,0,276
11,0,0,0,0,276
12,0,0,0,0,275
13,0,0,0,0,275
14,0,0,0,0,275
15,0,0,0,0,275
0,0,0,0,0,275
1,0,0,0,0,275
2,0,0,0,0,275
3,0,0,0,0,275
4,0,0,0,0,275
5,0,0,0,0,275
6,0,0,0,0,275
7,0,0,0,0,275
8,0,0,0,0,275
9,0,0,0,0,275
10,0,0,0,0,275
11,0,0,0,0,275
12,0,0,0,0,275
13,0,0,0,0,275
14,0,0,0,0,275
15,0,0,0,0,275
0,0,0,0,0,275
1,0,0,0,0,274
2,0,0,0,0,274
3,0,0,0,0,275
4,0,0,0,0,274
5,0,0,0,0,274
6,0,0,0,0,274
7,0,0,0,0,274
8,0,0,0,0,274
9,0,0,0,0,274
10,0,0,0,0,274
11,0,0,0,0,274
12,0,0,0,0,274
13,0,0,0,0,274
14,0,0,0,0,274
15,0,0,0,0,274
0,0,0,0,0,273
1,0,0,0,0,273
2,0,0,0,0,273
3,0,0,0,0,273
4,0,0,0,0,273
5,0,0,0,0,273
6,0,0,0,0,273
7,0,0,0,0,273
8,0,0,0,0,273
9,0,0,0,0,273
10,0,0,0,0,273
11,0,0,0,0,273
12,0,0,0,0,273
13,0,0,0,0,273
14,0,0,0,0,273
15,0,0,0,0,273
0,0,0,0,0,273
1,0,0,0,0,273
2,0,0,0,0,273
3,0,0,0,0,273
4,0,0,0,0,273
5,0,0,0,0,272
6,0,0,0,0,272
7,0,0,0,0,273
8,0,0,0,0,272
9,0,0,0,0,272
10,0,0,0,0,272
11,0,0,0,0,272
12,0,0,0,0,272
13,0,0,0,0,272
14,0,0,0,0,272
15,0,0,0,0,272
0,0,0,0,0,272
1,0,0,0,0,272
2,0,0,0,0,272
3,0,0,0,0,272
4,0,0,0,0,272
5,0,0,0,0,272
6,0,0,0,0,272
7,0,0,0,0,272
8,0,0,0,0,271
9,0,0,0,0,272
10,0,0,0,0,272
11,0,0,0,0,272
12,0,0,0,0,271
13,0,0,0,0,271
14,0,0,0,0,271
15,0,0,0,0,271
0,0,0,0,0,271
1,0,0,0,0,271
2,0,0,0,0,271
3,0,0,0,0,271
4,0,0,0,0,271
5,0,0,0,0,271
6,0,0,0,0,271
7,0,0,0,0,271
8,0,0,0,0,271
9,0,0,0,0,271
10,0,0,0,0,271
11,0,0,0,0,271
12,0,0,0,0,271
13,0,0,0,0,271
14,0,0,0,0,271
15,0,0,0,0,271
0,0,0,0,0,271
1,0,0,0,0,271
2,0,0,0,0,271
3,0,0,0,0,271
4,0,0,0,0,271
5,0,0,0,0,270
6,0,0,0,0,270
7,0,0,0,0,270
8,0,0,0,0,270
9,0,0,0,0,270
10,0,0,0,0,270
11,0,0,0,0,270
12,0,0,0,0,270
13,0,0,0,0,270
14,0,0,0,0,270
15,0,0,0,0,270
0,0,0,0,0,270
1,0,0,0,0,270
2,0,0,0,0,270
3,0,0,0,0,270
4,0,0,0,0,270
5,0,0,0,0,270
6,0,0,0,0,270
7,0,0,0,0,270
8,0,0,0,0,270
9,0,0,0,0,270
10,0,0,0,0,270
11,0,0,0,0,270
12,0,0,0,0,270
13,0,0,0,0,270
14,0,0,0,0,270
15,0,0,0,0,270
0,0,0,0,0,269
1,0,0,0,0,269
2,0,0,0,0,269
3,0,0,0,0,269
4,0,0,0,0,269
5,0,0,0,0,269
6,0,0,0,0,269
7,0,0,0,0,269
8,0,0,0,0,269
9,0,0,0,0,269
10,0,0,0,0,269
11,0,0,0,0,269
12,0,0,0,0,269
13,0,0,0,0,269
14,0,0,0,0,269
15,0,0,0,0,269
0,0,0,0,0,269
1,0,0,0,0,269
2,0,0,0,0,269
3,0,0,0,0,269
4,0,0,0,0,269
5,0,0,0,0,268
6,0,0,0,0,268
7,0,0,0,0,268
8,0,0,0,0,268
9,0,0,0,0,268
10,0,0,0,0,268
11,0,0,0,0,268
12,0,0,0,0,268
13,0,0,0,0,268
14,0,0,0,0,268
15,0,0,0,0,268
0,0,0,0,0,268
1,0,0,0,0,268
2,0,0,0,0,268
3,0,0,0,0,268
4,0,0,0,0,268
5,0,0,0,0,268
6,0,0,0,0,268
7,0,0,0,0,268
8,0,0,0,0,268
9,0,0,0,0,268
10,0,0,0,0,268
11,0,0,0,0,268
12,0,0,0,0,268
13,0,0,0,0,268
14,0,0,0,0,268
15,0,0,0,0,268
0,0,0,0,0,267
1,0,0,0,0,267
2,0,0,0,0,267
3,0,0,0,0,268
4,0,0,0,0,267
5,0,0,0,0,267
6,0,0,0,0,267
7,0,0,0,0,267
8,0,0,0,0,267
9,0,0,0,0,267
10,0,0,0,0,267
11,0,0,0,0,267
12,0,0,0,0,267
13,0,0,0,0,267
14,0,0,0,0,267
15,0,0,0,0,267
0,0,0,0,0,267
1,0,0,0,0,267
2,0,0,0,0,267
3,0,0,0,0,267
4,0,0,0,0,267
5,0,0,0,0,267
6,0,0,0,0,267
7,0,0,0,0,267
8,0,0,0,0,267
9,0,0,0,0,267
10,0,0,0,0,267
11,0,0,0,0,267
12,0,0,0,0,266
13,0,0,0,0,266
14,0,0,0,0,266
15,0,0,0,0,267
0,0,0,0,0,266
1,0,0,0,0,266
2,0,0,0,0,266
3,0,0,0,0,266
4,0,0,0,0,266
5,0,0,0,0,266
6,0,0,0,0,266
7,0,0,0,0,266
8,0,0,0,0,266
9,0,0,0,0,266
10,0,0,0,0,266
11,0,0,0,0,266
12,0,0,0,0,266
13,0,0,0,0,265
14,0,0,0,0,266
15,0,0,0,0,266
0,0,0,0,0,265
1,0,0,0,0,265
2,0,0,0,0,265
3,0,0,0,0,265
4,0,0,0,0,265
5,0,0,0,0,265
6,0,0,0,0,265
7,0,0,0,0,265
8,0,0,0,0,265
9,0,0,0,0,265
10,0,0,0,0,265
11,0,0,0,0,265
12,0,0,0,0,265
13,0,0,0,0,265
14,0,0,0,0,265
15,0,0,0,0,265
0,0,0,0,0,265
1,0,0,0,0,265
2,0,0,0,0,265
3,0,0,0,0,265
4,0,0,0,0,265
5,0,0,0,0,265
6,0,0,0,0,265
7,0,0,0,0,265
8,0,0,0,0,265
9,0,0,0,0,265
10,0,0,0,0,265
11,0,0,0,0,265
12,0,0,0,0,264
13,0,0,0,0,265
14,0,0,0,0,264
15,0,0,0,0,265
0,0,0,0,0,264
1,0,0,0,0,264
2,0,0,0,0,264
3,0,0,0,0,264
4,0,0,0,0,264
5,0,0,0,0,264
6,0,0,0,0,264
7,0,0,0,0,264
8,0,0,0,0,264
9,0,0,0,0,264
10,0,0,0,0,264
11,0,0,0,0,264
12,0,0,0,0,264
13,0,0,0,0,264
14,0,0,0,0,264
15,0,0,0,0,264
0,0,0,0,0,264
1,0,0,0,0,264
2,0,0,0,0,264
3,0,0,0,0,264
4,0,0,0,0,264
5,0,0,0,0,263
6,0,0,0,0,263
7,0,0,0,0,263
8,0,0,0,0,263
9,0,0,0,0,263
10,0,0,0,0,263
11,0,0,0,0,263
12,0,0,0,0,263
13,0,0,0,0,263
14,0,0,0,0,263
15,0,0,0,0,263
0,0,0,0,0,263
1,0,0,0,0,263
2,0,0,0,0,263
3,0,0,0,0,263
4,0,0,0,0,263
5,0,0,0,0,263
6,0,0,0,0,263
7,0,0,0,0,263
8,0,0,0,0,263
9,0,0,0,0,263
10,0,0,0,0,263
11,0,0,0,0,263
12,0,0,0,0,263
13,0,0,0,0,263
14,0,0,0,0,263
15,0,0,0,0,263
0,0,0,0,0,263
1,0,0,0,0,263
2,0,0,0,0,263
3,0,0,0,0,263
4,0,0,0,0,263
5,0,0,0,0,263
6,0,0,0,0,263
7,0,0,0,0,263
8,0,0,0,0,263
9,0,0,0,0,263
10,0,0,0,0,263
11,0,0,0,0,263
12,0,0,0,0,263
13,0,0,0,0,263
14,0,0,0,0,263
15,0,0,0,0,263
0,0,0,0,0,263
1,0,0,0,0,263
2,0,0,0,0,263
3,0,0,0,0,263
4,0,0,0,0,263
5,0,0,0,0,263
6,0,0,0,0,263
7,0,0,0,0,263
8,0,0,0,0,263
9,0,0,0,0,263
10,0,0,0,0,263
11,0,0,0,0,263
12,0,0,0,0,263
13,0,0,0,0,263
14,0,0,0,0,263
15,0,0,0,0,263
0,0,0,0,0,263
1,0,0,0,0,263
2,0,0,0,0,263
3,0,0,0,0,263
4,0,0,0,0,263
5,0,0,0,0,263
6,0,0,0,0,263
7,0,0,0,0,263
8,0,0,0,0,263
9,0,0,0,0,263
10,0,0,0,0,262
11,0,0,0,0,263
12,0,0,0,0,262
13,0,0,0,0,262
14,0,0,0,0,262
15,0,0,0,0,263
0,0,0,0,0,262
1,0,0,0,0,262
2,0,0,0,0,262
3,0,0,0,0,263
4,0,0,0,0,262
5,0,0,0,0,262
6,0,0,0,0,262
7,0,0,0,0,263
8,0,0,0,0,262
9,0,0,0,0,262
10,0,0,0,0,262
11,0,0,0,0,262
12,0,0,0,0,262
13,0,0,0,0,262
14,0,0,0,0,262
15,0,0,0,0,262
0,0,0,0,0,262
1,0,0,0,0,262
2,0,0,0,0,262
3,0,0,0,0,262
4,0,0,0,0,262
5,0,0,0,0,262
6,0,0,0,0,262
7,0,0,0,0,262
8,0,0,0,0,262
9,0,0,0,0,262
10,0,0,0,0,262
11,0,0,0,0,262
12,0,0,0,0,262
13,0,0,0,0,262
14,0,0,0,0,262
15,0,0,0,0,262
0,0,0,0,0,262
1,0,0,0,0,262
2,0,0,0,0,262
3,0,0,0,0,262
4,0,0,0,0,262
5,0,0,0,0,262
6,0,0,0,0,262
7,0,0,0,0,262
8,0,0,0,0,262
9,0,0,0,0,262
10,0,0,0,0,262
11,0,0,0,0,262
12,0,0,0,0,262
13,0,0,0,0,262
14,0,0,0,0,262
15,0,0,0,0,242
0,0,0,0,0,202
1,0,0,0,0,171
2,0,0,0,0,145
3,0,0,0,0,123
4,0,0,0,0,103
5,0,0,0,0,86
6,0,0,0,0,72
7,0,0,0,0,60
8,0,0,0,0,50
9,0,0,0,0,42
10,0,0,0,0,37
11,0,0,0,0,36
12,0,0,0,0,36
13,0,0,0,0,36
14,0,0,0,0,35
15,0,0,0,0,34
0,0,0,0,0,33
1,0,0,0,0,32
2,0,0,0,0,31
3,0,0,0,0,30
4,0,0,0,0,30
5,0,0,0,0,29
6,0,0,0,0,29
7,0,0,0,0,28
8,0,0,0,0,28
9,0,0,0,0,28
10,0,0,0,0,28
11,0,0,0,0,28
12,0,0,0,0,27
13,0,0,0,0,27
14,0,0,0,0,27
15,0,0,0,0,27
0,0,0,0,0,26
1,0,0,0,0,25
2,0,0,0,0,25
3,0,0,0,0,25
4,0,0,0,0,24
5,0,0,0,0,24
6,0,0,0,0,25
7,0,0,0,0,26
8,0,0,0,0,27
9,0,0,0,0,27
10,0,0,0,0,28
11,0,0,0,0,57
12,0,0,0,0,92
13,0,0,0,0,121
14,0,0,0,0,145
15,0,0,0,0,164
0,0,0,0,0,180
1,0,0,0,0,194
2,0,0,0,0,206
3,0,0,0,0,215
4,0,0,0,0,223
5,0,0,0,0,229
6,0,0,0,0,235
7,0,0,0,0,239
8,0,0,0,0,243
9,0,0,0,0,246
10,0,0,0,0,248
11,0,0,0,0,251
12,0,0,0,0,252
13,0,0,0,0,254
14,0,0,0,0,255
15,0,0,0,0,256
0,0,0,0,0,257
1,0,0,0,0,257
2,0,0,0,0,258
3,0,0,0,0,259
4,0,0,0,0,259
5,0,0,0,0,259
6,0,0,0,0,260
7,0,0,0,0,260
8,0,0,0,0,260
9,0,0,0,0,260
10,0,0,0,0,260
11,0,0,0,0,261
12,0,0,0,0,260
13,0,0,0,0,261
14,0,0,0,0,261
15,0,0,0,0,261
0,0,0,0,0,261
1,0,0,0,0,261
2,0,0,0,0,261
3,0,0,0,0,261
4,0,0,0,0,261
5,0,0,0,0,261
6,0,0,0,0,261
7,0,0,0,0,261
8,0,0,0,0,261
9,0,0,0,0,261
10,0,0,0,0,261
11,0,0,0,0,261
12,0,0,0,0,261
13,0,0,0,0,261
14,0,0,0,0,261
15,0,0,0,0,261
0,0,0,0,0,261
1,0,0,0,0,261
2,0,0,0,0,261
3,0,0,0,0,261
4,0,0,0,0,261
5,0,0,0,0,261
6,0,0,0,0,261
7,0,0,0,0,261
8,0,0,0,0,261
9,0,0,0,0,261
10,0,0,0,0,261
11,0,0,0,0,261
12,0,0,0,0,261
13,0,0,0,0,260
14,0,0,0,0,261
15,0,0,0,0,261
0,0,0,0,0,260
1,0,0,0,0,260
2,0,0,0,0,260
3,0,0,0,0,260
4,0,0,0,0,260
5,0,0,0,0,260
6,0,0,0,0,260
7,0,0,0,0,260
8,0,0,0,0,260
9,0,0,0,0,260
10,0,0,0,0,260
11,0,0,0,0,260
12,0,0,0,0,260
13,0,0,0,0,260
14,0,0,0,0,260
15,0,0,0,0,260
0,0,0,0,0,260
1,0,0,0,0,260
2,0,0,0,0,260
3,0,0,0,0,260
4,0,0,0,0,260
5,0,0,0,0,260
6,0,0,0,0,260
7,0,0,0,0,260
8,0,0,0,0,260
9,0,0,0,0,260
10,0,0,0,0,260
11,0,0,0,0,260
12,0,0,0,0,260
13,0,0,0,0,260
14,0,0,0,0,260
15,0,0,0,0,260
0,0,0,0,0,259
1,0,0,0,0,259
2,0,0,0,0,259
3,0,0,0,0,259
4,0,0,0,0,259
5,0,0,0,0,259
6,0,0,0,0,259
7,0,0,0,0,259
8,0,0,0,0,259
9,0,0,0,0,259
10,0,0,0,0,259
11,0,0,0,0,259
12,0,0,0,0,259
13,0,0,0,0,259
14,0,0,0,0,259
15,0,0,0,0,259
0,0,0,0,0,259
1,0,0,0,0,259
2,0,0,0,0,259
3,0,0,0,0,259
4,0,0,0,0,259
5,0,0,0,0,259
6,0,0,0,0,259
7,0,0,0,0,259
8,0,0,0,0,259
9,0,0,0,0,259
10,0,0,0,0,258
11,0,0,0,0,259
12,0,0,0,0,258
13,0,0,0,0,258
14,0,0,0,0,258
15,0,0,0,0,258
0,0,0,0,0,258
1,0,0,0,0,258
2,0,0,0,0,258
3,0,0,0,0,258
4,0,0,0,0,258
5,0,0,0,0,258
6,0,0,0,0,258
7,0,0,0,0,258
8,0,0,0,0,258
9,0,0,0,0,258
10,0,0,0,0,258
11,0,0,0,0,258
12,0,0,0,0,257
13,0,0,0,0,257
14,0,0,0,0,257
15,0,0,0,0,257
0,0,0,0,0,257
1,0,0,0,0,257
2,0,0,0,0,257
3,0,0,0,0,257
4,0,0,0,0,257
5,0,0,0,0,257
6,0,0,0,0,257
7,0,0,0,0,257
8,0,0,0,0,257
9,0,0,0,0,257
10,0,0,0,0,257
11,0,0,0,0,257
12,0,0,0,0,257
13,0,0,0,0,257
14,0,0,0,0,257
15,0,0,0,0,257
0,0,0,0,0,257
1,0,0,0,0,257
2,0,0,0,0,257
3,0,0,0,0,257
4,0,0,0,0,257
5,0,0,0,0,256
6,0,0,0,0,256
7,0,0,0,0,257
8,0,0,0,0,256
9,0,0,0,0,256
10,0,0,0,0,256
11,0,0,0,0,256
12,0,0,0,0,256
13,0,0,0,0,256
14,0,0,0,0,256
15,0,0,0,0,256
0,0,0,0,0,256
1,0,0,0,0,256
2,0,0,0,0,256
3,0,0,0,0,256
4,0,0,0,0,256
5,0,0,0,0,256
6,0,0,0,0,255
7,0,0,0,0,256
8,0,0,0,0,255
9,0,0,0,0,255
10,0,0,0,0,255
11,0,0,0,0,255
12,0,0,0,0,255
13,0,0,0,0,255
14,0,0,0,0,255
15,0,0,0,0,255
0,0,0,0,0,255
1,0,0,0,0,255
2,0,0,0,0,255
3,0,0,0,0,255
4,0,0,0,0,255
5,0,0,0,0,255
6,0,0,0,0,255
7,0,0,0,0,255
8,0,0,0,0,255
9,0,0,0,0,255
10,0,0,0,0,255
11,0,0,0,0,255
12,0,0,0,0,255
13,0,0,0,0,255
14,0,0,0,0,255
15,0,0,0,0,255
0,0,0,0,0,255
1,0,0,0,0,255
2,0,0,0,0,256
3,0,0,0,0,256
4,0,0,0,0,256
5,0,0,0,0,256
6,0,0,0,0,256
7,0,0,0,0,256
8,0,0,0,0,256
9,0,0,0,0,256
10,0,0,0,0,256
11,0,0,0,0,257
12,0,0,0,0,257
13,0,0,0,0,257
14,0,0,0,0,257
15,0,0,0,0,257
0,0,0,0,0,257
1,0,0,0,0,257
2,0,0,0,0,258
3,0,0,0,0,258
4,0,0,0,0,258
5,0,0,0,0,258
6,0,0,0,0,258
7,0,0,0,0,259
8,0,0,0,0,259
9,0,0,0,0,259
10,0,0,0,0,259
11,0,0,0,0,259
12,0,0,0,0,260
13,0,0,0,0,260
14,0,0,0,0,260
15,0,0,0,0,261
0,0,0,0,0,261
1,0,0,0,0,261
2,0,0,0,0,261
3,0,0,0,0,262
4,0,0,0,0,262
5,0,0,0,0,262
6,0,0,0,0,262
7,0,0,0,0,263
8,0,0,0,0,263
9,0,0,0,0,263
10,0,0,0,0,263
11,0,0,0,0,264
12,0,0,0,0,264
13,0,0,0,0,264
14,0,0,0,0,265
15,0,0,0,0,265
0,0,0,0,0,265
1,0,0,0,0,266
2,0,0,0,0,266
3,0,0,0,0,267
4,0,0,0,0,267
5,0,0,0,0,267
6,0,0,0,0,268
7,0,0,0,0,268
8,0,0,0,0,268
9,0,0,0,0,268
10,0,0,0,0,269
11,0,0,0,0,269
12,0,0,0,0,269
13,0,0,0,0,270
14,0,0,0,0,270
15,0,0,0,0,271
0,0,0,0,0,271
1,0,0,0,0,271
2,0,0,0,0,271
3,0,0,0,0,271
4,0,0,0,0,272
5,0,0,0,0,272
6,0,0,0,0,272
7,0,0,0,0,273
8,0,0,0,0,273
9,0,0,0,0,273
10,0,0,0,0,273
11,0,0,0,0,274
12,0,0,0,0,274
13,0,0,0,0,274
14,0,0,0,0,275
15,0,0,0,0,275
0,0,0,0,0,275
1,0,0,0,0,275
2,0,0,0,0,275
3,0,0,0,0,276
4,0,0,0,0,276
5,0,0,0,0,276
6,0,0,0,0,276
7,0,0,0,0,277
8,0,0,0,0,277
9,0,0,0,0,277
10,0,0,0,0,277
11,0,0,0,0,277
12,0,0,0,0,278
13,0,0,0,0,278
14,0,0,0,0,278
15,0,0,0,0,278
0,0,0,0,0,278
1,0,0,0,0,278
2,0,0,0,0,278
3,0,0,0,0,279
4,0,0,0,0,279
5,0,0,0,0,279
6,0,0,0,0,279
7,0,0,0,0,279
8,0,0,0,0,279
9,0,0,0,0,279
10,0,0,0,0,279
11,0,0,0,0,280
12,0,0,0,0,280
13,0,0,0,0,280
14,0,0,0,0,280
15,0,0,0,0,280
0,0,0,0,0,280
1,0,0,0,0,280
2,0,0,0,0,280
3,0,0,0,0,280
4,0,0,0,0,280
5,0,0,0,0,280
6,0,0,0,0,280
7,0,0,0,0,280
8,0,0,0,0,280
9,0,0,0,0,281
10,0,0,0,0,281
11,0,0,0,0,281
12,0,0,0,0,281
13,0,0,0,0,281
14,0,0,0,0,281
15,0,0,0,0,281
0,0,0,0,0,281
1,0,0,0,0,281
2,0,0,0,0,281
3,0,0,0,0,281
4,0,0,0,0,281
5,0,0,0,0,281
6,0,0,0,0,281
7,0,0,0,0,281
8,0,0,0,0,281
9,0,0,0,0,281
10,0,0,0,0,281
11,0,0,0,0,282
12,0,0,0,0,281
13,0,0,0,0,281
14,0,0,0,0,282
15,0,0,0,0,282
0,0,0,0,0,282
1,0,0,0,0,282
2,0,0,0,0,282
3,0,0,0,0,282
4,0,0,0,0,282
5,0,0,0,0,282
6,0,0,0,0,282
7,0,0,0,0,282
8,0,0,0,0,282
9,0,0,0,0,282
10,0,0,0,0,282
11,0,0,0,0,282
12,0,0,0,0,282
13,0,0,0,0,282
14,0,0,0,0,282
15,0,0,0,0,283
0,0,0,0,0,282
1,0,0,0,0,282
2,0,0,0,0,283
3,0,0,0,0,283
4,0,0,0,0,283
5,0,0,0,0,283
6,0,0,0,0,283
7,0,0,0,0,283
8,0,0,0,0,283
9,0,0,0,0,283
10,0,0,0,0,283
11,0,0,0,0,283
12,0,0,0,0,283
13,0,0,0,0,283
14,0,0,0,0,283
15,0,0,0,0,283
0,0,0,0,0,283
1,0,0,0,0,283
2,0,0,0,0,283
3,0,0,0,0,283
4,0,0,0,0,283
5,0,0,0,0,283
6,0,0,0,0,283
7,0,0,0,0,283
8,0,0,0,0,283
9,0,0,0,0,283
10,0,0,0,0,283
11,0,0,0,0,283
12,0,0,0,0,283
13,0,0,0,0,283
14,0,0,0,0,283
15,0,0,0,0,284
0,0,0,0,0,283
1,0,0,0,0,284
2,0,0,0,0,284
3,0,0,0,0,284
4,0,0,0,0,284
5,0,0,0,0,284
6,0,0,0,0,284
7,0,0,0,0,284
8,0,0,0,0,284
9,0,0,0,0,284
10,0,0,0,0,284
11,0,0,0,0,284
12,0,0,0,0,284
13,0,0,0,0,284
14,0,0,0,0,284
15,0,0,0,0,284
0,0,0,0,0,284
1,0,0,0,0,284
2,0,0,0,0,284
3,0,0,0,0,284
4,0,0,0,0,284
5,0,0,0,0,284
6,0,0,0,0,284
7,0,0,0,0,284
8,0,0,0,0,284
9,0,0,0,0,284
10,0,0,0,0,284
11,0,0,0,0,285
12,0,0,0,0,284
13,0,0,0,0,284
14,0,0,0,0,285
15,0,0,0,0,285
0,0,0,0,0,285
1,0,0,0,0,285
2,0,0,0,0,285
3,0,0,0,0,285
4,0,0,0,0,285
5,0,0,0,0,285
6,0,0,0,0,285
7,0,0,0,0,285
8,0,0,0,0,285
9,0,0,0,0,285
10,0,0,0,0,285
11,0,0,0,0,285
12,0,0,0,0,285
13,0,0,0,0,285
14,0,0,0,0,285
15,0,0,0,0,286
0,0,0,0,0,286
1,0,0,0,0,286
2,0,0,0,0,286
3,0,0,0,0,286
4,0,0,0,0,286
5,0,0,0,0,286
6,0,0,0,0,286
7,0,0,0,0,286
8,0,0,0,0,286
9,0,0,0,0,286
10,0,0,0,0,286
11,0,0,0,0,286
12,0,0,0,0,286
13,0,0,0,0,286
14,0,0,0,0,287
15,0,0,0,0,287
0,0,0,0,0,287
1,0,0,0,0,287
2,0,0,0,0,287
3,0,0,0,0,287
4,0,0,0,0,287
5,0,0,0,0,287
6,0,0,0,0,287
7,0,0,0,0,287
8,0,0,0,0,287
9,0,0,0,0,287
10,0,0,0,0,287
11,0,0,0,0,287
12,0,0,0,0,287
13,0,0,0,0,287
14,0,0,0,0,288
15,0,0,0,0,288
0,0,0,0,0,288
1,0,0,0,0,288
2,0,0,0,0,288
3,0,0,0,0,288
4,0,0,0,0,288
5,0,0,0,0,288
6,0,0,0,0,288
7,0,0,0,0,289
8,0,0,0,0,288
9,0,0,0,0,289
10,0,0,0,0,289
11,0,0,0,0,289
12,0,0,0,0,289
13,0,0,0,0,289
14,0,0,0,0,289
15,0,0,0,0,289
0,0,0,0,0,289
1,0,0,0,0,290
2,0,0,0,0,290
3,0,0,0,0,290
4,0,0,0,0,290
5,0,0,0,0,290
6,0,0,0,0,290
7,0,0,0,0,291
8,0,0,0,0,291
9,0,0,0,0,291
10,0,0,0,0,291
11,0,0,0,0,291
12,0,0,0,0,291
13,0,0,0,0,291
14,0,0,0,0,291
15,0,0,0,0,292
0,0,0,0,0,292
1,0,0,0,0,292
2,0,0,0,0,292
3,0,0,0,0,292
4,0,0,0,0,292
5,0,0,0,0,293
6,0,0,0,0,293
7,0,0,0,0,293
8,0,0,0,0,293
9,0,0,0,0,294
10,0,0,0,0,294
11,0,0,0,0,294
12,0,0,0,0,294
13,0,0,0,0,294
14,0,0,0,0,294
15,0,0,0,0,295
0,0,0,0,0,295
1,0,0,0,0,295
2,0,0,0,0,295
3,0,0,0,0,295
4,0,0,0,0,295
5,0,0,0,0,295
6,0,0,0,0,296
7,0,0,0,0,296
8,0,0,0,0,296
9,0,0,0,0,296
10,0,0,0,0,296
11,0,0,0,0,297
12,0,0,0,0,297
13,0,0,0,0,297
14,0,0,0,0,297
15,0,0,0,0,298
0,0,0,0,0,298
1,0,0,0,0,298
2,0,0,0,0,298
3,0,0,0,0,299
4,0,0,0,0,299
5,0,0,0,0,299
6,0,0,0,0,299
7,0,0,0,0,299
8,0,0,0,0,300
9,0,0,0,0,300
10,0,0,0,0,300
11,0,0,0,0,300
12,0,0,0,0,300
13,0,0,0,0,300
14,0,0,0,0,301
15,0,0,0,0,301
0,0,0,0,0,301
1,0,0,0,0,302
2,0,0,0,0,302
3,0,0,0,0,302
4,0,0,0,0,302
5,0,0,0,0,302
6,0,0,0,0,303
7,0,0,0,0,303
8,0,0,0,0,303
9,0,0,0,0,303
10,0,0,0,0,303
11,0,0,0,0,304
12,0,0,0,0,304
13,0,0,0,0,304
14,0,0,0,0,304
15,0,0,0,0,304
0,0,0,0,0,304
1,0,0,0,0,305
2,0,0,0,0,305
3,0,0,0,0,305
4,0,0,0,0,305
5,0,0,0,0,305
6,0,0,0,0,305
7,0,0,0,0,306
8,0,0,0,0,306
9,0,0,0,0,306
10,0,0,0,0,307
11,0,0,0,0,307
12,0,0,0,0,307
13,0,0,0,0,307
14,0,0,0,0,307
15,0,0,0,0,308
0,0,0,0,0,308
1,0,0,0,0,308
2,0,0,0,0,308
3,0,0,0,0,308
4,0,0,0,0,309
5,0,0,0,0,309
6,0,0,0,0,309
7,0,0,0,0,309
8,0,0,0,0,309
9,0,0,0,0,310
10,0,0,0,0,310
11,0,0,0,0,310
12,0,0,0,0,310
13,0,0,0,0,310
14,0,0,0,0,311
15,0,0,0,0,311
0,0,0,0,0,311
1,0,0,0,0,311
2,0,0,0,0,312
3,0,0,0,0,312
4,0,0,0,0,312
5,0,0,0,0,312
6,0,0,0,0,312
7,0,0,0,0,312
8,0,0,0,0,312
9,0,0,0,0,313
10,0,0,0,0,313
11,0,0,0,0,313
12,0,0,0,0,313
13,0,0,0,0,313
14,0,0,0,0,314
15,0,0,0,0,314
0,0,0,0,0,314
1,0,0,0,0,315
2,0,0,0,0,315
3,0,0,0,0,315
4,0,0,0,0,315
5,0,0,0,0,315
6,0,0,0,0,316
7,0,0,0,0,316
8,0,0,0,0,316
9,0,0,0,0,316
10,0,0,0,0,316
11,0,0,0,0,316
12,0,0,0,0,316
13,0,0,0,0,317
14,0,0,0,0,317
15,0,0,0,0,317
0,0,0,0,0,317
1,0,0,0,0,317
2,0,0,0,0,318
3,0,0,0,0,318
4,0,0,0,0,318
5,0,0,0,0,318
6,0,0,0,0,318
7,0,0,0,0,318
8,0,0,0,0,318
9,0,0,0,0,319
10,0,0,0,0,319
11,0,0,0,0,319
12,0,0,0,0,319
13,0,0,0,0,319
14,0,0,0,0,319
15,0,0,0,0,319
0,0,0,0,0,319
1,0,0,0,0,319
2,0,0,0,0,319
3,0,0,0,0,320
4,0,0,0,0,320
5,0,0,0,0,320
6,0,0,0,0,320
7,0,0,0,0,320
8,0,0,0,0,320
9,0,0,0,0,320
10,0,0,0,0,320
11,0,0,0,0,321
12,0,0,0,0,320
13,0,0,0,0,321
14,0,0,0,0,321
15,0,0,0,0,321
0,0,0,0,0,321
1,0,0,0,0,321
2,0,0,0,0,321
3,0,0,0,0,321
4,0,0,0,0,321
5,0,0,0,0,321
6,0,0,0,0,321
7,0,0,0,0,322
8,0,0,0,0,321
9,0,0,0,0,322
10,0,0,0,0,322
11,0,0,0,0,322
12,0,0,0,0,322
13,0,0,0,0,322
14,0,0,0,0,322
15,0,0,0,0,322
0,0,0,0,0,322
1,0,0,0,0,322
2,0,0,0,0,322
3,0,0,0,0,323
4,0,0,0,0,323
5,0,0,0,0,323
6,0,0,0,0,323
7,0,0,0,0,323
8,0,0,0,0,323
9,0,0,0,0,323
10,0,0,0,0,323
11,0,0,0,0,323
12,0,0,0,0,323
13,0,0,0,0,323
14,0,0,0,0,323
15,0,0,0,0,323
0,0,0,0,0,323
1,0,0,0,0,323
2,0,0,0,0,323
3,0,0,0,0,323
4,0,0,0,0,323
5,0,0,0,0,323
6,0,0,0,0,323
7,0,0,0,0,324
8,0,0,0,0,324
9,0,0,0,0,324
10,0,0,0,0,324
11,0,0,0,0,324
12,0,0,0,0,324
13,0,0,0,0,324
14,0,0,0,0,324
15,0,0,0,0,324
0,0,0,0,0,324
1,0,0,0,0,324
2,0,0,0,0,324
3,0,0,0,0,324
4,0,0,0,0,324
5,0,0,0,0,324
6,0,0,0,0,324
7,0,0,0,0,324
8,0,0,0,0,324
9,0,0,0,0,324
10,0,0,0,0,324
11,0,0,0,0,324
12,0,0,0,0,324
13,0,0,0,0,324
14,0,0,0,0,324
15,0,0,0,0,324
0,0,0,0,0,324
1,0,0,0,0,324
2,0,0,0,0,324
3,0,0,0,0,325
4,0,0,0,0,324
5,0,0,0,0,324
6,0,0,0,0,325
7,0,0,0,0,325
8,0,0,0,0,325
9,0,0,0,0,325
10,0,0,0,0,325
11,0,0,0,0,325
12,0,0,0,0,325
13,0,0,0,0,325
14,0,0,0,0,325
15,0,0,0,0,325
0,0,0,0,0,325
1,0,0,0,0,325
2,0,0,0,0,325
3,0,0,0,0,325
4,0,0,0,0,325
5,0,0,0,0,325
6,0,0,0,0,325
7,0,0,0,0,325
8,0,0,0,0,325
9,0,0,0,0,325
10,0,0,0,0,325
11,0,0,0,0,325
12,0,0,0,0,325
13,0,0,0,0,325
14,0,0,0,0,325
15,0,0,0,0,325
0,0,0,0,0,325
1,0,0,0,0,325
2,0,0,0,0,325
3,0,0,0,0,325
4,0,0,0,0,325
5,0,0,0,0,325
6,0,0,0,0,325
7,0,0,0,0,325
8,0,0,0,0,325
9,0,0,0,0,325
10,0,0,0,0,325
11,0,0,0,0,325
12,0,0,0,0,325
13,0,0,0,0,325
14,0,0,0,0,325
15,0,0,0,0,325
0,0,0,0,0,325
1,0,0,0,0,325
2,0,0,0,0,325
3,0,0,0,0,325
4,0,0,0,0,325
5,0,0,0,0,325
6,0,0,0,0,325
7,0,0,0,0,325
8,0,0,0,0,325
9,0,0,0,0,324
10,0,0,0,0,324
11,0,0,0,0,325
12,0,0,0,0,324
13,0,0,0,0,324
14,0,0,0,0,324
15,0,0,0,0,324
0,0,0,0,0,324
1,0,0,0,0,324
2,0,0,0,0,324
3,0,0,0,0,324
4,0,0,0,0,324
5,0,0,0,0,324
6,0,0,0,0,324
7,0,0,0,0,324
8,0,0,0,0,324
9,0,0,0,0,324
10,0,0,0,0,324
11,0,0,0,0,324
12,0,0,0,0,324
13,0,0,0,0,324
14,0,0,0,0,324
15,0,0,0,0,324
0,0,0,0,0,324
1,0,0,0,0,324
2,0,0,0,0,324
3,0,0,0,0,324
4,0,0,0,0,324
5,0,0,0,0,324
6,0,0,0,0,324
7,0,0,0,0,324
8,0,0,0,0,324
9,0,0,0,0,324
10,0,0,0,0,324
11,0,0,0,0,324
12,0,0,0,0,324
13,0,0,0,0,324
14,0,0,0,0,324
15,0,0,0,0,324
0,0,0,0,0,324
1,0,0,0,0,324
2,0,0,0,0,324
3,0,0,0,0,324
4,0,0,0,0,324
5,0,0,0,0,324
6,0,0,0,0,324
7,0,0,0,0,325
8,0,0,0,0,325
9,0,0,0,0,325
10,0,0,0,0,325
11,0,0,0,0,325
12,0,0,0,0,325
13,0,0,0,0,326
14,0,0,0,0,326
15,0,0,0,0,326
0,0,0,0,0,326
1,0,0,0,0,326
2,0,0,0,0,326
3,0,0,0,0,327
4,0,0,0,0,327
5,0,0,0,0,327
6,0,0,0,0,327
7,0,0,0,0,327
8,0,0,0,0,327
9,0,0,0,0,327
10,0,0,0,0,327
11,0,0,0,0,328
12,0,0,0,0,328
13,0,0,0,0,328
14,0,0,0,0,328
15,0,0,0,0,329
0,0,0,0,0,329
1,0,0,0,0,329
2,0,0,0,0,329
3,0,0,0,0,330
4,0,0,0,0,330
5,0,0,0,0,330
6,0,0,0,0,331
7,0,0,0,0,331
8,0,0,0,0,331
9,0,0,0,0,331
10,0,0,0,0,331
11,0,0,0,0,332
12,0,0,0,0,332
13,0,0,0,0,332
14,0,0,0,0,332
15,0,0,0,0,333
0,0,0,0,0,333
1,0,0,0,0,333
2,0,0,0,0,334
3,0,0,0,0,334
4,0,0,0,0,334
5,0,0,0,0,334
6,0,0,0,0,335
7,0,0,0,0,335
8,0,0,0,0,335
9,0,0,0,0,335
10,0,0,0,0,336
11,0,0,0,0,336
12,0,0,0,0,336
13,0,0,0,0,336
14,0,0,0,0,337
15,0,0,0,0,337
0,0,0,0,0,337
1,0,0,0,0,337
2,0,0,0,0,338
3,0,0,0,0,338
4,0,0,0,0,338
5,0,0,0,0,338
6,0,0,0,0,339
7,0,0,0,0,339
8,0,0,0,0,339
9,0,0,0,0,339
10,0,0,0,0,339
11,0,0,0,0,340
12,0,0,0,0,340
13,0,0,0,0,340
14,0,0,0,0,340
15,0,0,0,0,340
0,0,0,0,0,341
1,0,0,0,0,341
2,0,0,0,0,341
3,0,0,0,0,341
4,0,0,0,0,342
5,0,0,0,0,342
6,0,0,0,0,342
7,0,0,0,0,342
8,0,0,0,0,342
9,0,0,0,0,342
10,0,0,0,0,343
11,0,0,0,0,343
12,0,0,0,0,343
13,0,0,0,0,343
14,0,0,0,0,343
15,0,0,0,0,344
0,0,0,0,0,344
1,0,0,0,0,344
2,0,0,0,0,344
3,0,0,0,0,344
4,0,0,0,0,344
5,0,0,0,0,344
6,0,0,0,0,344
7,0,0,0,0,345
8,0,0,0,0,345
9,0,0,0,0,345
10,0,0,0,0,345
11,0,0,0,0,345
12,0,0,0,0,345
13,0,0,0,0,345
14,0,0,0,0,345
15,0,0,0,0,345
0,0,0,0,0,345
1,0,0,0,0,345
2,0,0,0,0,346
3,0,0,0,0,346
4,0,0,0,0,346
5,0,0,0,0,346
6,0,0,0,0,346
7,0,0,0,0,346
8,0,0,0,0,346
9,0,0,0,0,346
10,0,0,0,0,346
11,0,0,0,0,347
12,0,0,0,0,347
13,0,0,0,0,347
14,0,0,0,0,347
15,0,0,0,0,347
0,0,0,0,0,347
1,0,0,0,0,347
2,0,0,0,0,347
3,0,0,0,0,347
4,0,0,0,0,347
5,0,0,0,0,347
6,0,0,0,0,347
7,0,0,0,0,347
8,0,0,0,0,347
9,0,0,0,0,347
10,0,0,0,0,347
11,0,0,0,0,347
12,0,0,0,0,347
13,0,0,0,0,347
14,0,0,0,0,347
15,0,0,0,0,347
0,0,0,0,0,347
1,0,0,0,0,347
2,0,0,0,0,347
3,0,0,0,0,347
4,0,0,0,0,347
5,0,0,0,0,347
6,0,0,0,0,347
7,0,0,0,0,347
8,0,0,0,0,347
9,0,0,0,0,347
10,0,0,0,0,347
11,0,0,0,0,347
12,0,0,0,0,347
13,0,0,0,0,347
14,0,0,0,0,347
15,0,0,0,0,347
0,0,0,0,0,347
1,0,0,0,0,347
2,0,0,0,0,347
3,0,0,0,0,347
4,0,0,0,0,347
5,0,0,0,0,347
6,0,0,0,0,347
7,0,0,0,0,347
8,0,0,0,0,347
9,0,0,0,0,346
10,0,0,0,0,346
11,0,0,0,0,346
12,0,0,0,0,346
13,0,0,0,0,346
14,0,0,0,0,346
15,0,0,0,0,346
0,0,0,0,0,346
1,0,0,0,0,346
2,0,0,0,0,346
3,0,0,0,0,346
4,0,0,0,0,345
5,0,0,0,0,345
6,0,0,0,0,345
7,0,0,0,0,345
8,0,0,0,0,345
9,0,0,0,0,345
10,0,0,0,0,345
11,0,0,0,0,345
12,0,0,0,0,345
13,0,0,0,0,345
14,0,0,0,0,345
15,0,0,0,0,345
0,0,0,0,0,344
1,0,0,0,0,344
2,0,0,0,0,344
3,0,0,0,0,344
4,0,0,0,0,344
5,0,0,0,0,344
6,0,0,0,0,344
7,0,0,0,0,344
8,0,0,0,0,344
9,0,0,0,0,344
10,0,0,0,0,344
11,0,0,0,0,344
12,0,0,0,0,343
13,0,0,0,0,343
14,0,0,0,0,343
15,0,0,0,0,343
0,0,0,0,0,343
1,0,0,0,0,343
2,0,0,0,0,343
3,0,0,0,0,343
4,0,0,0,0,343
5,0,0,0,0,342
6,0,0,0,0,342
7,0,0,0,0,342
8,0,0,0,0,342
9,0,0,0,0,342
10,0,0,0,0,342
11,0,0,0,0,342
12,0,0,0,0,341
13,0,0,0,0,341
14,0,0,0,0,341
15,0,0,0,0,341
0,0,0,0,0,341
1,0,0,0,0,341
2,0,0,0,0,341
3,0,0,0,0,340
4,0,0,0,0,340
5,0,0,0,0,340
6,0,0,0,0,340
7,0,0,0,0,340
8,0,0,0,0,340
9,0,0,0,0,340
10,0,0,0,0,340
11,0,0,0,0,340
12,0,0,0,0,339
13,0,0,0,0,339
14,0,0,0,0,339
15,0,0,0,0,339
0,0,0,0,0,339
1,0,0,0,0,339
2,0,0,0,0,339
3,0,0,0,0,339
4,0,0,0,0,339
5,0,0,0,0,339
6,0,0,0,0,338
7,0,0,0,0,338
8,0,0,0,0,338
9,0,0,0,0,338
10,0,0,0,0,338
11,0,0,0,0,338
12,0,0,0,0,337
13,0,0,0,0,337
14,0,0,0,0,337
15,0,0,0,0,337
0,0,0,0,0,337
1,0,0,0,0,337
2,0,0,0,0,337
3,0,0,0,0,337
4,0,0,0,0,337
5,0,0,0,0,337
6,0,0,0,0,336
7,0,0,0,0,336
8,0,0,0,0,336
9,0,0,0,0,336
10,0,0,0,0,336
11,0,0,0,0,336
12,0,0,0,0,336
13,0,0,0,0,335
14,0,0,0,0,335
15,0,0,0,0,335
0,0,0,0,0,335
1,0,0,0,0,335
2,0,0,0,0,335
3,0,0,0,0,335
4,0,0,0,0,335
5,0,0,0,0,335
6,0,0,0,0,335
7,0,0,0,0,335
8,0,0,0,0,334
9,0,0,0,0,334
10,0,0,0,0,334
11,0,0,0,0,334
12,0,0,0,0,334
13,0,0,0,0,334
14,0,0,0,0,334
15,0,0,0,0,334
0,0,0,0,0,334
1,0,0,0,0,333
2,0,0,0,0,333
3,0,0,0,0,333
4,0,0,0,0,333
5,0,0,0,0,333
6,0,0,0,0,333
7,0,0,0,0,333
8,0,0,0,0,333
9,0,0,0,0,332
10,0,0,0,0,332
11,0,0,0,0,332
12,0,0,0,0,332
13,0,0,0,0,332
14,0,0,0,0,332
15,0,0,0,0,332
0,0,0,0,0,332
1,0,0,0,0,332
2,0,0,0,0,332
3,0,0,0,0,332
4,0,0,0,0,331
5,0,0,0,0,331
6,0,0,0,0,331
7,0,0,0,0,331
8,0,0,0,0,331
9,0,0,0,0,331
10,0,0,0,0,331
11,0,0,0,0,331
12,0,0,0,0,331
13,0,0,0,0,331
14,0,0,0,0,331
15,0,0,0,0,331
0,0,0,0,0,330
1,0,0,0,0,330
2,0,0,0,0,330
3,0,0,0,0,330
4,0,0,0,0,330
5,0,0,0,0,330
6,0,0,0,0,330
7,0,0,0,0,330
8,0,0,0,0,329
9,0,0,0,0,329
10,0,0,0,0,329
11,0,0,0,0,329
12,0,0,0,0,329
13,0,0,0,0,329
14,0,0,0,0,329
15,0,0,0,0,329
0,0,0,0,0,329
1,0,0,0,0,329
2,0,0,0,0,329
3,0,0,0,0,329
4,0,0,0,0,328
5,0,0,0,0,328
6,0,0,0,0,328
7,0,0,0,0,328
8,0,0,0,0,328
9,0,0,0,0,328
10,0,0,0,0,328
11,0,0,0,0,328
12,0,0,0,0,328
13,0,0,0,0,327
14,0,0,0,0,327
15,0,0,0,0,327
0,0,0,0,0,327
1,0,0,0,0,327
2,0,0,0,0,327
3,0,0,0,0,327
4,0,0,0,0,327
5,0,0,0,0,327
6,0,0,0,0,327
7,0,0,0,0,327
8,0,0,0,0,327
9,0,0,0,0,327
10,0,0,0,0,327
11,0,0,0,0,327
12,0,0,0,0,327
13,0,0,0,0,326
14,0,0,0,0,326
15,0,0,0,0,326
0,0,0,0,0,326
1,0,0,0,0,326
2,0,0,0,0,326
3,0,0,0,0,326
4,0,0,0,0,326
5,0,0,0,0,326
6,0,0,0,0,326
7,0,0,0,0,326
8,0,0,0,0,326
9,0,0,0,0,325
10,0,0,0,0,325
11,0,0,0,0,325
12,0,0,0,0,325
13,0,0,0,0,325
14,0,0,0,0,325
15,0,0,0,0,325
0,0,0,0,0,325
1,0,0,0,0,325
2,0,0,0,0,324
3,0,0,0,0,324
4,0,0,0,0,324
5,0,0,0,0,324
6,0,0,0,0,324
7,0,0,0,0,324
8,0,0,0,0,324
9,0,0,0,0,324
10,0,0,0,0,324
11,0,0,0,0,324
12,0,0,0,0,324
13,0,0,0,0,324
14,0,0,0,0,324
15,0,0,0,0,324
0,0,0,0,0,323
1,0,0,0,0,323
2,0,0,0,0,323
3,0,0,0,0,323
4,0,0,0,0,323
5,0,0,0,0,323
6,0,0,0,0,323
7,0,0,0,0,323
8,0,0,0,0,323
9,0,0,0,0,323
10,0,0,0,0,323
11,0,0,0,0,323
12,0,0,0,0,323
13,0,0,0,0,323
14,0,0,0,0,322
15,0,0,0,0,323
0,0,0,0,0,322
1,0,0,0,0,322
2,0,0,0,0,322
3,0,0,0,0,322
4,0,0,0,0,322
5,0,0,0,0,322
6,0,0,0,0,322
7,0,0,0,0,322
8,0,0,0,0,322
9,0,0,0,0,321
10,0,0,0,0,321
11,0,0,0,0,321
12,0,0,0,0,321
13,0,0,0,0,321
14,0,0,0,0,321
15,0,0,0,0,321
0,0,0,0,0,321
1,0,0,0,0,321
2,0,0,0,0,321
3,0,0,0,0,321
4,0,0,0,0,321
5,0,0,0,0,321
6,0,0,0,0,321
7,0,0,0,0,321
8,0,0,0,0,321
9,0,0,0,0,320
10,0,0,0,0,320
11,0,0,0,0,320
12,0,0,0,0,320
13,0,0,0,0,320
14,0,0,0,0,320
15,0,0,0,0,320
0,0,0,0,0,320
1,0,0,0,0,320
2,0,0,0,0,320
3,0,0,0,0,320
4,0,0,0,0,320
5,0,0,0,0,319
6,0,0,0,0,319
7,0,0,0,0,319
8,0,0,0,0,319
9,0,0,0,0,319
10,0,0,0,0,319
11,0,0,0,0,319
12,0,0,0,0,319
13,0,0,0,0,319
14,0,0,0,0,319
15,0,0,0,0,319
0,0,0,0,0,319
1,0,0,0,0,319
2,0,0,0,0,319
3,0,0,0,0,319
4,0,0,0,0,319
5,0,0,0,0,319
6,0,0,0,0,319
7,0,0,0,0,319
8,0,0,0,0,318
9,0,0,0,0,318
10,0,0,0,0,318
11,0,0,0,0,318
12,0,0,0,0,318
13,0,0,0,0,318
14,0,0,0,0,318
15,0,0,0,0,318
0,0,0,0,0,318
1,0,0,0,0,318
2,0,0,0,0,318
3,0,0,0,0,318
4,0,0,0,0,318
5,0,0,0,0,318
6,0,0,0,0,317
7,0,0,0,0,318
8,0,0,0,0,317
9,0,0,0,0,317
10,0,0,0,0,317
11,0,0,0,0,317
12,0,0,0,0,317
13,0,0,0,0,317
14,0,0,0,0,317
15,0,0,0,0,317
0,0,0,0,0,317
1,0,0,0,0,316
2,0,0,0,0,316
3,0,0,0,0,316
4,0,0,0,0,316
5,0,0,0,0,316
6,0,0,0,0,316
7,0,0,0,0,316
8,0,0,0,0,316
9,0,0,0,0,316
10,0,0,0,0,316
11,0,0,0,0,316
12,0,0,0,0,316
13,0,0,0,0,316
14,0,0,0,0,316
15,0,0,0,0,316
0,0,0,0,0,315
1,0,0,0,0,315
2,0,0,0,0,315
3,0,0,0,0,315
4,0,0,0,0,315
5,0,0,0,0,315
6,0,0,0,0,315
7,0,0,0,0,315
8,0,0,0,0,315
9,0,0,0,0,315
10,0,0,0,0,315
11,0,0,0,0,315
12,0,0,0,0,315
13,0,0,0,0,315
14,0,0,0,0,315
15,0,0,0,0,315
0,0,0,0,0,315
1,0,0,0,0,315
2,0,0,0,0,315
3,0,0,0,0,315
4,0,0,0,0,315
5,0,0,0,0,315
6,0,0,0,0,315
7,0,0,0,0,315
8,0,0,0,0,315
9,0,0,0,0,315
10,0,0,0,0,315
11,0,0,0,0,315
12,0,0,0,0,315
13,0,0,0,0,315
14,0,0,0,0,315
15,0,0,0,0,315
0,0,0,0,0,315
1,0,0,0,0,315
2,0,0,0,0,316
3,0,0,0,0,316
4,0,0,0,0,316
5,0,0,0,0,316
6,0,0,0,0,316
7,0,0,0,0,316
8,0,0,0,0,316
9,0,0,0,0,316
10,0,0,0,0,316
11,0,0,0,0,316
12,0,0,0,0,316
13,0,0,0,0,316
14,0,0,0,0,316
15,0,0,0,0,317
0,0,0,0,0,317
1,0,0,0,0,317
2,0,0,0,0,317
3,0,0,0,0,317
4,0,0,0,0,317
5,0,0,0,0,317
6,0,0,0,0,318
7,0,0,0,0,318
8,0,0,0,0,318
9,0,0,0,0,318
10,0,0,0,0,318
11,0,0,0,0,318
12,0,0,0,0,318
13,0,0,0,0,319
14,0,0,0,0,319
15,0,0,0,0,319
0,0,0,0,0,319
1,0,0,0,0,319
2,0,0,0,0,319
3,0,0,0,0,319
4,0,0,0,0,319
5,0,0,0,0,319
6,0,0,0,0,320
7,0,0,0,0,320
8,0,0,0,0,320
9,0,0,0,0,320
10,0,0,0,0,320
11,0,0,0,0,321
12,0,0,0,0,321
13,0,0,0,0,321
14,0,0,0,0,321
15,0,0,0,0,321
0,0,0,0,0,321
1,0,0,0,0,321
2,0,0,0,0,321
3,0,0,0,0,322
4,0,0,0,0,322
5,0,0,0,0,322
6,0,0,0,0,322
7,0,0,0,0,323
8,0,0,0,0,323
9,0,0,0,0,323
10,0,0,0,0,323
11,0,0,0,0,323
12,0,0,0,0,324
13,0,0,0,0,324
14,0,0,0,0,324
15,0,0,0,0,325
0,0,0,0,0,325
1,0,0,0,0,325
2,0,0,0,0,326
3,0,0,0,0,326
4,0,0,0,0,326
5,0,0,0,0,326
6,0,0,0,0,327
7,0,0,0,0,327
8,0,0,0,0,327
9,0,0,0,0,327
10,0,0,0,0,327
11,0,0,0,0,328
12,0,0,0,0,328
13,0,0,0,0,328
14,0,0,0,0,328
15,0,0,0,0,329
0,0,0,0,0,329
1,0,0,0,0,329
2,0,0,0,0,329
3,0,0,0,0,329
4,0,0,0,0,329
5,0,0,0,0,330
6,0,0,0,0,330
7,0,0,0,0,330
8,0,0,0,0,331
9,0,0,0,0,331
10,0,0,0,0,331
11,0,0,0,0,331
12,0,0,0,0,331
13,0,0,0,0,331
14,0,0,0,0,332
15,0,0,0,0,332
0,0,0,0,0,332
1,0,0,0,0,332
2,0,0,0,0,332
3,0,0,0,0,332
4,0,0,0,0,333
5,0,0,0,0,333
6,0,0,0,0,333
7,0,0,0,0,333
8,0,0,0,0,333
9,0,0,0,0,333
10,0,0,0,0,333
11,0,0,0,0,333
12,0,0,0,0,333
13,0,0,0,0,333
14,0,0,0,0,333
15,0,0,0,0,333
0,0,0,0,0,333
1,0,0,0,0,333
2,0,0,0,0,333
3,0,0,0,0,333
4,0,0,0,0,333
5,0,0,0,0,334
6,0,0,0,0,334
7,0,0,0,0,334
8,0,0,0,0,334
9,0,0,0,0,334
10,0,0,0,0,334
11,0,0,0,0,334
12,0,0,0,0,334
13,0,0,0,0,334
14,0,0,0,0,334
15,0,0,0,0,334
0,0,0,0,0,335
1,0,0,0,0,334
2,0,0,0,0,335
3,0,0,0,0,335
4,0,0,0,0,335
5,0,0,0,0,334
6,0,0,0,0,334
7,0,0,0,0,335
8,0,0,0,0,334
9,0,0,0,0,334
10,0,0,0,0,334
11,0,0,0,0,334
12,0,0,0,0,334
13,0,0,0,0,334
14,0,0,0,0,334
15,0,0,0,0,334
0,0,0,0,0,334
1,0,0,0,0,334
2,0,0,0,0,334
3,0,0,0,0,334
4,0,0,0,0,334
5,0,0,0,0,334
6,0,0,0,0,334
7,0,0,0,0,334
8,0,0,0,0,334
9,0,0,0,0,334
10,0,0,0,0,334
11,0,0,0,0,334
12,0,0,0,0,334
13,0,0,0,0,334
14,0,0,0,0,334
15,0,0,0,0,334
0,0,0,0,0,334
1,0,0,0,0,334
2,0,0,0,0,334
3,0,0,0,0,334
4,0,0,0,0,334
5,0,0,0,0,334
6,0,0,0,0,334
7,0,0,0,0,334
8,0,0,0,0,334
9,0,0,0,0,334
10,0,0,0,0,334
11,0,0,0,0,334
12,0,0,0,0,334
13,0,0,0,0,334
14,0,0,0,0,334
15,0,0,0,0,334
0,0,0,0,0,334
1,0,0,0,0,334
2,0,0,0,0,334
3,0,0,0,0,334
4,0,0,0,0,334
5,0,0,0,0,334
6,0,0,0,0,334
7,0,0,0,0,334
8,0,0,0,0,334
9,0,0,0,0,334
10,0,0,0,0,334
11,0,0,0,0,334
12,0,0,0,0,334
13,0,0,0,0,334
14,0,0,0,0,334
15,0,0,0,0,334
0,0,0,0,0,334
1,0,0,0,0,334
2,0,0,0,0,334
3,0,0,0,0,333
4,0,0,0,0,333
5,0,0,0,0,333
6,0,0,0,0,333
7,0,0,0,0,333
8,0,0,0,0,333
9,0,0,0,0,333
10,0,0,0,0,333
11,0,0,0,0,333
12,0,0,0,0,333
13,0,0,0,0,333
14,0,0,0,0,333
15,0,0,0,0,333
0,0,0,0,0,332
1,0,0,0,0,332
2,0,0,0,0,332
3,0,0,0,0,332
4,0,0,0,0,332
5,0,0,0,0,332
6,0,0,0,0,332
7,0,0,0,0,332
8,0,0,0,0,332
9,0,0,0,0,332
10,0,0,0,0,331
11,0,0,0,0,331
12,0,0,0,0,331
13,0,0,0,0,331
14,0,0,0,0,331
15,0,0,0,0,331
0,0,0,0,0,331
1,0,0,0,0,330
2,0,0,0,0,330
3,0,0,0,0,330
4,0,0,0,0,330
5,0,0,0,0,330
6,0,0,0,0,330
7,0,0,0,0,330
8,0,0,0,0,329
9,0,0,0,0,329
10,0,0,0,0,329
11,0,0,0,0,329
12,0,0,0,0,329
13,0,0,0,0,329
14,0,0,0,0,329
15,0,0,0,0,328
0,0,0,0,0,328
1,0,0,0,0,328
2,0,0,0,0,328
3,0,0,0,0,328
4,0,0,0,0,328
5,0,0,0,0,327
6,0,0,0,0,342
7,0,0,0,0,352
8,0,0,0,0,360
9,0,0,0,0,365
10,0,0,0,0,369
11,0,0,0,0,373
12,0,0,0,0,377
13,0,0,0,0,380
14,0,0,0,0,374
15,0,0,0,0,366
0,0,0,0,0,359
1,0,0,0,0,353
2,0,0,0,0,348
3,0,0,0,0,344
4,0,0,0,0,341
5,0,0,0,0,338
6,0,0,0,0,336
7,0,0,0,0,334
8,0,0,0,0,333
9,0,0,0,0,331
10,0,0,0,0,330
11,0,0,0,0,329
12,0,0,0,0,328
13,0,0,0,0,327
14,0,0,0,0,327
15,0,0,0,0,327
0,0,0,0,0,327
1,0,0,0,0,326
2,0,0,0,0,326
3,0,0,0,0,326
4,0,0,0,0,325
5,0,0,0,0,325
6,0,0,0,0,325
7,0,0,0,0,325
8,0,0,0,0,324
9,0,0,0,0,324
10,0,0,0,0,324
11,0,0,0,0,324
12,0,0,0,0,324
13,0,0,0,0,324
14,0,0,0,0,324
15,0,0,0,0,324
0,0,0,0,0,324
1,0,0,0,0,324
2,0,0,0,0,324
3,0,0,0,0,324
4,0,0,0,0,324
5,0,0,0,0,324
6,0,0,0,0,324
7,0,0,0,0,324
8,0,0,0,0,324
9,0,0,0,0,324
10,0,0,0,0,324
11,0,0,0,0,324
12,0,0,0,0,324
13,0,0,0,0,324
14,0,0,0,0,324
15,0,0,0,0,324
0,0,0,0,0,324
1,0,0,0,0,325
2,0,0,0,0,325
3,0,0,0,0,325
4,0,0,0,0,325
5,0,0,0,0,325
6,0,0,0,0,325
7,0,0,0,0,325
8,0,0,0,0,326
9,0,0,0,0,326
10,0,0,0,0,326
11,0,0,0,0,326
12,0,0,0,0,326
13,0,0,0,0,326
14,0,0,0,0,326
15,0,0,0,0,326
0,0,0,0,0,327
1,0,0,0,0,327
2,0,0,0,0,327
3,0,0,0,0,327
4,0,0,0,0,327
5,0,0,0,0,327
6,0,0,0,0,327
7,0,0,0,0,327
8,0,0,0,0,327
9,0,0,0,0,327
10,0,0,0,0,327
11,0,0,0,0,327
12,0,0,0,0,328
13,0,0,0,0,327
14,0,0,0,0,328
15,0,0,0,0,328
0,0,0,0,0,328
1,0,0,0,0,328
2,0,0,0,0,328
3,0,0,0,0,328
4,0,0,0,0,328
5,0,0,0,0,328
6,0,0,0,0,329
7,0,0,0,0,329
8,0,0,0,0,329
9,0,0,0,0,329
10,0,0,0,0,329
11,0,0,0,0,329
12,0,0,0,0,329
13,0,0,0,0,329
14,0,0,0,0,329
15,0,0,0,0,329
0,0,0,0,0,329
1,0,0,0,0,329
2,0,0,0,0,330
3,0,0,0,0,330
4,0,0,0,0,330
5,0,0,0,0,330
6,0,0,0,0,330
7,0,0,0,0,330
8,0,0,0,0,330
9,0,0,0,0,330
10,0,0,0,0,330
11,0,0,0,0,330
12,0,0,0,0,331
13,0,0,0,0,331
14,0,0,0,0,331
15,0,0,0,0,331
0,0,0,0,0,331
1,0,0,0,0,331
2,0,0,0,0,331
3,0,0,0,0,331
4,0,0,0,0,331
5,0,0,0,0,331
6,0,0,0,0,331
7,0,0,0,0,331
8,0,0,0,0,331
9,0,0,0,0,331
10,0,0,0,0,332
11,0,0,0,0,332
12,0,0,0,0,332
13,0,0,0,0,332
14,0,0,0,0,332
15,0,0,0,0,332
0,0,0,0,0,332
1,0,0,0,0,332
2,0,0,0,0,332
3,0,0,0,0,332
4,0,0,0,0,332
5,0,0,0,0,332
6,0,0,0,0,332
7,0,0,0,0,332
8,0,0,0,0,332
9,0,0,0,0,332
10,0,0,0,0,332
11,0,0,0,0,332
12,0,0,0,0,333
13,0,0,0,0,332
14,0,0,0,0,333
15,0,0,0,0,333
0,0,0,0,0,333
1,0,0,0,0,333
2,0,0,0,0,333
3,0,0,0,0,333
4,0,0,0,0,333
5,0,0,0,0,333
6,0,0,0,0,333
7,0,0,0,0,333
8,0,0,0,0,333
9,0,0,0,0,333
10,0,0,0,0,333
11,0,0,0,0,333
12,0,0,0,0,333
13,0,0,0,0,333
14,0,0,0,0,333
15,0,0,0,0,333
0,0,0,0,0,333
1,0,0,0,0,333
2,0,0,0,0,333
3,0,0,0,0,333
4,0,0,0,0,333
5,0,0,0,0,333
6,0,0,0,0,333
7,0,0,0,0,333
8,0,0,0,0,333
9,0,0,0,0,333
10,0,0,0,0,333
11,0,0,0,0,333
12,0,0,0,0,333
13,0,0,0,0,333
14,0,0,0,0,333
15,0,0,0,0,333
0,0,0,0,0,333
1,0,0,0,0,333
2,0,0,0,0,333
3,0,0,0,0,333
4,0,0,0,0,333
5,0,0,0,0,333
6,0,0,0,0,333
7,0,0,0,0,333
8,0,0,0,0,333
9,0,0,0,0,333
10,0,0,0,0,333
11,0,0,0,0,333
12,0,0,0,0,333
13,0,0,0,0,333
14,0,0,0,0,333
15,0,0,0,0,333
0,0,0,0,0,333
1,0,0,0,0,333
2,0,0,0,0,333
3,0,0,0,0,333
4,0,0,0,0,333
5,0,0,0,0,333
6,0,0,0,0,333
7,0,0,0,0,333
8,0,0,0,0,333
9,0,0,0,0,333
10,0,0,0,0,333
11,0,0,0,0,334
12,0,0,0,0,334
13,0,0,0,0,334
14,0,0,0,0,334
15,0,0,0,0,334
0,0,0,0,0,334
1,0,0,0,0,334
2,0,0,0,0,334
3,0,0,0,0,334
4,0,0,0,0,334
5,0,0,0,0,334
6,0,0,0,0,334
7,0,0,0,0,334
8,0,0,0,0,334
9,0,0,0,0,334
10,0,0,0,0,334
11,0,0,0,0,334
12,0,0,0,0,335
13,0,0,0,0,335
14,0,0,0,0,335
15,0,0,0,0,335
0,0,0,0,0,335
1,0,0,0,0,335
2,0,0,0,0,335
3,0,0,0,0,335
4,0,0,0,0,335
5,0,0,0,0,335
6,0,0,0,0,335
7,0,0,0,0,335
8,0,0,0,0,335
9,0,0,0,0,335
10,0,0,0,0,336
11,0,0,0,0,336
12,0,0,0,0,336
13,0,0,0,0,336
14,0,0,0,0,339
15,0,0,0,0,351
0,0,0,0,0,362
1,0,0,0,0,371
2,0,0,0,0,378
3,0,0,0,0,384
4,0,0,0,0,387
5,0,0,0,0,391
6,0,0,0,0,393
7,0,0,0,0,395
8,0,0,0,0,395
9,0,0,0,0,391
10,0,0,0,0,382
11,0,0,0,0,374
12,0,0,0,0,368
13,0,0,0,0,363
14,0,0,0,0,358
15,0,0,0,0,355
0,0,0,0,0,352
1,0,0,0,0,350
2,0,0,0,0,348
3,0,0,0,0,346
4,0,0,0,0,345
5,0,0,0,0,344
6,0,0,0,0,343
7,0,0,0,0,342
8,0,0,0,0,341
9,0,0,0,0,340
10,0,0,0,0,340
11,0,0,0,0,339
12,0,0,0,0,339
13,0,0,0,0,339
14,0,0,0,0,339
15,0,0,0,0,338
0,0,0,0,0,338
1,0,0,0,0,338
2,0,0,0,0,338
3,0,0,0,0,337
4,0,0,0,0,337
5,0,0,0,0,337
6,0,0,0,0,337
7,0,0,0,0,337
8,0,0,0,0,337
9,0,0,0,0,337
10,0,0,0,0,337
11,0,0,0,0,337
12,0,0,0,0,337
13,0,0,0,0,337
14,0,0,0,0,337
15,0,0,0,0,337
0,0,0,0,0,337
1,0,0,0,0,337
2,0,0,0,0,337
3,0,0,0,0,337
4,0,0,0,0,337
5,0,0,0,0,337
6,0,0,0,0,337
7,0,0,0,0,337
8,0,0,0,0,337
9,0,0,0,0,337
10,0,0,0,0,337
11,0,0,0,0,337
12,0,0,0,0,337
13,0,0,0,0,337
14,0,0,0,0,337
15,0,0,0,0,337
0,0,0,0,0,337
1,0,0,0,0,337
2,0,0,0,0,337
3,0,0,0,0,338
4,0,0,0,0,338
5,0,0,0,0,338
6,0,0,0,0,338
7,0,0,0,0,338
8,0,0,0,0,338
9,0,0,0,0,338
10,0,0,0,0,339
11,0,0,0,0,339
12,0,0,0,0,339
13,0,0,0,0,339
14,0,0,0,0,339
15,0,0,0,0,339
0,0,0,0,0,339
1,0,0,0,0,339
2,0,0,0,0,339
3,0,0,0,0,340
4,0,0,0,0,340
5,0,0,0,0,340
6,0,0,0,0,340
7,0,0,0,0,340
8,0,0,0,0,340
9,0,0,0,0,340
10,0,0,0,0,340
11,0,0,0,0,341
12,0,0,0,0,341
13,0,0,0,0,341
14,0,0,0,0,341
15,0,0,0,0,341
0,0,0,0,0,341
1,0,0,0,0,341
2,0,0,0,0,341
3,0,0,0,0,341
4,0,0,0,0,342
5,0,0,0,0,341
6,0,0,0,0,342
7,0,0,0,0,342
8,0,0,0,0,342
9,0,0,0,0,342
10,0,0,0,0,342
11,0,0,0,0,342
12,0,0,0,0,342
13,0,0,0,0,342
14,0,0,0,0,343
15,0,0,0,0,343
0,0,0,0,0,343
1,0,0,0,0,343
2,0,0,0,0,343
3,0,0,0,0,343
4,0,0,0,0,344
5,0,0,0,0,344
6,0,0,0,0,344
7,0,0,0,0,344
8,0,0,0,0,344
9,0,0,0,0,344
10,0,0,0,0,344
11,0,0,0,0,344
12,0,0,0,0,344
13,0,0,0,0,344
14,0,0,0,0,345
15,0,0,0,0,345
0,0,0,0,0,345
1,0,0,0,0,345
2,0,0,0,0,345
3,0,0,0,0,346
4,0,0,0,0,346
5,0,0,0,0,346
6,0,0,0,0,346
7,0,0,0,0,347
8,0,0,0,0,347
9,0,0,0,0,347
10,0,0,0,0,347
11,0,0,0,0,347
12,0,0,0,0,347
13,0,0,0,0,347
14,0,0,0,0,347
15,0,0,0,0,348
0,0,0,0,0,348
1,0,0,0,0,348
2,0,0,0,0,348
3,0,0,0,0,348
4,0,0,0,0,348
5,0,0,0,0,348
6,0,0,0,0,349
7,0,0,0,0,349
8,0,0,0,0,349
9,0,0,0,0,349
10,0,0,0,0,349
11,0,0,0,0,349
12,0,0,0,0,350
13,0,0,0,0,349
14,0,0,0,0,350
15,0,0,0,0,350
0,0,0,0,0,350
1,0,0,0,0,350
2,0,0,0,0,350
3,0,0,0,0,350
4,0,0,0,0,350
5,0,0,0,0,350
6,0,0,0,0,350
7,0,0,0,0,351
8,0,0,0,0,351
9,0,0,0,0,351
10,0,0,0,0,351
11,0,0,0,0,351
12,0,0,0,0,351
13,0,0,0,0,351
14,0,0,0,0,351
15,0,0,0,0,351
0,0,0,0,0,351
1,0,0,0,0,351
2,0,0,0,0,351
3,0,0,0,0,351
4,0,0,0,0,351
5,0,0,0,0,351
6,0,0,0,0,351
7,0,0,0,0,352
8,0,0,0,0,352
9,0,0,0,0,352
10,0,0,0,0,352
11,0,0,0,0,352
12,0,0,0,0,352
13,0,0,0,0,352
14,0,0,0,0,352
15,0,0,0,0,352
0,0,0,0,0,352
1,0,0,0,0,352
2,0,0,0,0,352
3,0,0,0,0,352
4,0,0,0,0,352
5,0,0,0,0,352
6,0,0,0,0,352
7,0,0,0,0,353
8,0,0,0,0,353
9,0,0,0,0,353
10,0,0,0,0,353
11,0,0,0,0,353
12,0,0,0,0,353
13,0,0,0,0,353
14,0,0,0,0,353
15,0,0,0,0,353
0,0,0,0,0,353
1,0,0,0,0,353
2,0,0,0,0,354
3,0,0,0,0,354
4,0,0,0,0,354
5,0,0,0,0,354
6,0,0,0,0,354
7,0,0,0,0,355
8,0,0,0,0,355
9,0,0,0,0,355
10,0,0,0,0,355
11,0,0,0,0,355
12,0,0,0,0,355
13,0,0,0,0,355
14,0,0,0,0,355
15,0,0,0,0,355
0,0,0,0,0,355
1,0,0,0,0,355
2,0,0,0,0,355
3,0,0,0,0,355
4,0,0,0,0,356
5,0,0,0,0,356
6,0,0,0,0,356
7,0,0,0,0,356
8,0,0,0,0,356
9,0,0,0,0,356
10,0,0,0,0,356
11,0,0,0,0,356
12,0,0,0,0,356
13,0,0,0,0,356
14,0,0,0,0,357
15,0,0,0,0,357
0,0,0,0,0,357
1,0,0,0,0,357
2,0,0,0,0,357
3,0,0,0,0,357
4,0,0,0,0,357
5,0,0,0,0,357
6,0,0,0,0,358
7,0,0,0,0,358
8,0,0,0,0,358
9,0,0,0,0,358
10,0,0,0,0,358
11,0,0,0,0,358
12,0,0,0,0,358
13,0,0,0,0,358
14,0,0,0,0,359
15,0,0,0,0,359
0,0,0,0,0,359
1,0,0,0,0,359
2,0,0,0,0,359
3,0,0,0,0,359
4,0,0,0,0,359
5,0,0,0,0,359
6,0,0,0,0,360
7,0,0,0,0,360
8,0,0,0,0,360
9,0,0,0,0,361
10,0,0,0,0,361
11,0,0,0,0,361
12,0,0,0,0,361
13,0,0,0,0,361
14,0,0,0,0,362
15,0,0,0,0,362
0,0,0,0,0,362
1,0,0,0,0,362
2,0,0,0,0,363
3,0,0,0,0,363
4,0,0,0,0,363
5,0,0,0,0,363
6,0,0,0,0,364
7,0,0,0,0,364
8,0,0,0,0,364
9,0,0,0,0,364
10,0,0,0,0,364
11,0,0,0,0,364
12,0,0,0,0,365
13,0,0,0,0,365
14,0,0,0,0,365
15,0,0,0,0,365
0,0,0,0,0,366
1,0,0,0,0,366
2,0,0,0,0,366
3,0,0,0,0,366
4,0,0,0,0,366
5,0,0,0,0,366
6,0,0,0,0,367
7,0,0,0,0,367
8,0,0,0,0,367
9,0,0,0,0,367
10,0,0,0,0,367
11,0,0,0,0,367
12,0,0,0,0,368
13,0,0,0,0,368
14,0,0,0,0,368
15,0,0,0,0,368
0,0,0,0,0,368
1,0,0,0,0,368
2,0,0,0,0,368
3,0,0,0,0,369
4,0,0,0,0,369
5,0,0,0,0,369
6,0,0,0,0,369
7,0,0,0,0,369
8,0,0,0,0,369
9,0,0,0,0,370
10,0,0,0,0,370
11,0,0,0,0,370
12,0,0,0,0,370
13,0,0,0,0,370
14,0,0,0,0,371
15,0,0,0,0,371
0,0,0,0,0,371
1,0,0,0,0,371
2,0,0,0,0,371
3,0,0,0,0,371
4,0,0,0,0,371
5,0,0,0,0,371
6,0,0,0,0,371
7,0,0,0,0,372
8,0,0,0,0,372
9,0,0,0,0,372
10,0,0,0,0,372
11,0,0,0,0,372
12,0,0,0,0,372
13,0,0,0,0,372
14,0,0,0,0,373
15,0,0,0,0,373
0,0,0,0,0,373
1,0,0,0,0,373
2,0,0,0,0,373
3,0,0,0,0,373
4,0,0,0,0,373
5,0,0,0,0,374
6,0,0,0,0,374
7,0,0,0,0,374
8,0,0,0,0,374
9,0,0,0,0,374
10,0,0,0,0,374
11,0,0,0,0,374
12,0,0,0,0,375
13,0,0,0,0,375
14,0,0,0,0,375
15,0,0,0,0,375
0,0,0,0,0,375
1,0,0,0,0,375
2,0,0,0,0,376
3,0,0,0,0,376
4,0,0,0,0,376
5,0,0,0,0,376
6,0,0,0,0,376
7,0,0,0,0,376
8,0,0,0,0,376
9,0,0,0,0,376
10,0,0,0,0,377
11,0,0,0,0,377
12,0,0,0,0,377
13,0,0,0,0,377
14,0,0,0,0,377
15,0,0,0,0,378
0,0,0,0,0,378
1,0,0,0,0,378
2,0,0,0,0,379
3,0,0,0,0,379
4,0,0,0,0,379
5,0,0,0,0,379
6,0,0,0,0,379
7,0,0,0,0,380
8,0,0,0,0,380
9,0,0,0,0,380
10,0,0,0,0,380
11,0,0,0,0,380
12,0,0,0,0,381
13,0,0,0,0,381
14,0,0,0,0,381
15,0,0,0,0,382
0,0,0,0,0,382
1,0,0,0,0,382
2,0,0,0,0,382
3,0,0,0,0,383
4,0,0,0,0,383
5,0,0,0,0,383
6,0,0,0,0,383
7,0,0,0,0,384
8,0,0,0,0,384
9,0,0,0,0,384
10,0,0,0,0,384
11,0,0,0,0,385
12,0,0,0,0,385
13,0,0,0,0,385
14,0,0,0,0,385
15,0,0,0,0,386
0,0,0,0,0,386
1,0,0,0,0,386
2,0,0,0,0,387
3,0,0,0,0,387
4,0,0,0,0,387
5,0,0,0,0,387
6,0,0,0,0,388
7,0,0,0,0,388
8,0,0,0,0,389
9,0,0,0,0,389
10,0,0,0,0,389
11,0,0,0,0,389
12,0,0,0,0,390
13,0,0,0,0,390
14,0,0,0,0,390
15,0,0,0,0,391
0,0,0,0,0,391
1,0,0,0,0,391
2,0,0,0,0,391
3,0,0,0,0,391
4,0,0,0,0,392
5,0,0,0,0,392
6,0,0,0,0,392
7,0,0,0,0,393
8,0,0,0,0,393
9,0,0,0,0,393
10,0,0,0,0,393
11,0,0,0,0,394
12,0,0,0,0,394
13,0,0,0,0,394
14,0,0,0,0,395
15,0,0,0,0,395
0,0,0,0,0,395
1,0,0,0,0,395
2,0,0,0,0,396
3,0,0,0,0,396
4,0,0,0,0,396
5,0,0,0,0,396
6,0,0,0,0,396
7,0,0,0,0,397
8,0,0,0,0,397
9,0,0,0,0,397
10,0,0,0,0,397
11,0,0,0,0,397
12,0,0,0,0,397
13,0,0,0,0,398
14,0,0,0,0,398
15,0,0,0,0,398
0,0,0,0,0,398
1,0,0,0,0,398
2,0,0,0,0,398
3,0,0,0,0,399
4,0,0,0,0,399
5,0,0,0,0,399
6,0,0,0,0,399
7,0,0,0,0,399
8,0,0,0,0,399
9,0,0,0,0,399
10,0,0,0,0,399
11,0,0,0,0,400
12,0,0,0,0,400
13,0,0,0,0,400
14,0,0,0,0,400
15,0,0,0,0,400
0,0,0,0,0,400
1,0,0,0,0,400
2,0,0,0,0,400
3,0,0,0,0,401
4,0,0,0,0,401
5,0,0,0,0,401
6,0,0,0,0,401
7,0,0,0,0,401
8,0,0,0,0,401
9,0,0,0,0,401
10,0,0,0,0,401
11,0,0,0,0,401
12,0,0,0,0,401
13,0,0,0,0,401
14,0,0,0,0,402
15,0,0,0,0,402
0,0,0,0,0,402
1,0,0,0,0,402
2,0,0,0,0,402
3,0,0,0,0,402
4,0,0,0,0,402
5,0,0,0,0,402
6,0,0,0,0,402
7,0,0,0,0,402
8,0,0,0,0,402
9,0,0,0,0,402
10,0,0,0,0,402
11,0,0,0,0,402
12,0,0,0,0,403
13,0,0,0,0,402
14,0,0,0,0,403
15,0,0,0,0,403
0,0,0,0,0,403
1,0,0,0,0,402
2,0,0,0,0,402
3,0,0,0,0,402
4,0,0,0,0,403
5,0,0,0,0,403
6,0,0,0,0,402
7,0,0,0,0,403
8,0,0,0,0,403
9,0,0,0,0,403
10,0,0,0,0,402
11,0,0,0,0,403
12,0,0,0,0,403
13,0,0,0,0,402
14,0,0,0,0,402
15,0,0,0,0,403
0,0,0,0,0,403
1,0,0,0,0,402
2,0,0,0,0,402
3,0,0,0,0,402
4,0,0,0,0,402
5,0,0,0,0,402
6,0,0,0,0,402
7,0,0,0,0,402
8,0,0,0,0,402
9,0,0,0,0,402
10,0,0,0,0,402
11,0,0,0,0,402
12,0,0,0,0,402
13,0,0,0,0,402
14,0,0,0,0,402
15,0,0,0,0,402
0,0,0,0,0,402
1,0,0,0,0,402
2,0,0,0,0,402
3,0,0,0,0,402
4,0,0,0,0,402
5,0,0,0,0,401
6,0,0,0,0,401
7,0,0,0,0,401
8,0,0,0,0,401
9,0,0,0,0,401
10,0,0,0,0,401
11,0,0,0,0,401
12,0,0,0,0,401
13,0,0,0,0,401
14,0,0,0,0,401
15,0,0,0,0,401
0,0,0,0,0,401
1,0,0,0,0,401
2,0,0,0,0,401
3,0,0,0,0,401
4,0,0,0,0,401
5,0,0,0,0,401
6,0,0,0,0,401
7,0,0,0,0,401
8,0,0,0,0,401
9,0,0,0,0,401
10,0,0,0,0,401
11,0,0,0,0,401
12,0,0,0,0,401
13,0,0,0,0,401
14,0,0,0,0,401
15,0,0,0,0,401
0,0,0,0,0,401
1,0,0,0,0,400
2,0,0,0,0,401
3,0,0,0,0,401
4,0,0,0,0,400
5,0,0,0,0,400
6,0,0,0,0,400
7,0,0,0,0,401
8,0,0,0,0,400
9,0,0,0,0,400
10,0,0,0,0,400
11,0,0,0,0,400
12,0,0,0,0,400
13,0,0,0,0,400
14,0,0,0,0,400
15,0,0,0,0,400
0,0,0,0,0,400
1,0,0,0,0,400
2,0,0,0,0,400
3,0,0,0,0,400
4,0,0,0,0,400
5,0,0,0,0,400
6,0,0,0,0,400
7,0,0,0,0,401
8,0,0,0,0,401
9,0,0,0,0,400
10,0,0,0,0,401
11,0,0,0,0,401
12,0,0,0,0,401
13,0,0,0,0,401
14,0,0,0,0,401
15,0,0,0,0,401
0,0,0,0,0,401
1,0,0,0,0,401
2,0,0,0,0,401
3,0,0,0,0,401
4,0,0,0,0,401
5,0,0,0,0,401
6,0,0,0,0,402
7,0,0,0,0,402
8,0,0,0,0,402
9,0,0,0,0,402
10,0,0,0,0,402
11,0,0,0,0,402
12,0,0,0,0,403
13,0,0,0,0,403
14,0,0,0,0,403
15,0,0,0,0,403
0,0,0,0,0,403
1,0,0,0,0,403
2,0,0,0,0,403
3,0,0,0,0,404
4,0,0,0,0,404
5,0,0,0,0,404
6,0,0,0,0,405
7,0,0,0,0,405
8,0,0,0,0,405
9,0,0,0,0,405
10,0,0,0,0,406
11,0,0,0,0,406
12,0,0,0,0,406
13,0,0,0,0,407
14,0,0,0,0,407
15,0,0,0,0,407
0,0,0,0,0,407
1,0,0,0,0,408
2,0,0,0,0,408
3,0,0,0,0,408
4,0,0,0,0,408
5,0,0,0,0,408
6,0,0,0,0,409
7,0,0,0,0,409
8,0,0,0,0,409
9,0,0,0,0,410
10,0,0,0,0,410
11,0,0,0,0,411
12,0,0,0,0,411
13,0,0,0,0,411
14,0,0,0,0,412
15,0,0,0,0,412
0,0,0,0,0,412
1,0,0,0,0,413
2,0,0,0,0,413
3,0,0,0,0,414
4,0,0,0,0,414
5,0,0,0,0,414
6,0,0,0,0,415
7,0,0,0,0,415
8,0,0,0,0,415
9,0,0,0,0,416
10,0,0,0,0,416
11,0,0,0,0,417
12,0,0,0,0,417
13,0,0,0,0,417
14,0,0,0,0,417
15,0,0,0,0,418
0,0,0,0,0,419
1,0,0,0,0,419
2,0,0,0,0,419
3,0,0,0,0,419
4,0,0,0,0,420
5,0,0,0,0,420
6,0,0,0,0,420
7,0,0,0,0,421
8,0,0,0,0,421
9,0,0,0,0,421
10,0,0,0,0,422
11,0,0,0,0,422
12,0,0,0,0,423
13,0,0,0,0,423
14,0,0,0,0,423
15,0,0,0,0,423
0,0,0,0,0,424
1,0,0,0,0,424
2,0,0,0,0,425
3,0,0,0,0,425
4,0,0,0,0,425
5,0,0,0,0,425
6,0,0,0,0,426
7,0,0,0,0,426
8,0,0,0,0,426
9,0,0,0,0,426
10,0,0,0,0,427
11,0,0,0,0,427
12,0,0,0,0,427
13,0,0,0,0,427
14,0,0,0,0,428
15,0,0,0,0,428
0,0,0,0,0,428
1,0,0,0,0,428
2,0,0,0,0,428
3,0,0,0,0,429
4,0,0,0,0,429
5,0,0,0,0,429
6,0,0,0,0,429
7,0,0,0,0,430
8,0,0,0,0,429
9,0,0,0,0,430
10,0,0,0,0,430
11,0,0,0,0,430
12,0,0,0,0,430
13,0,0,0,0,430
14,0,0,0,0,431
15,0,0,0,0,431
0,0,0,0,0,431
1,0,0,0,0,431
2,0,0,0,0,431
3,0,0,0,0,431
4,0,0,0,0,431
5,0,0,0,0,431
6,0,0,0,0,432
7,0,0,0,0,432
8,0,0,0,0,432
9,0,0,0,0,432
10,0,0,0,0,432
11,0,0,0,0,432
12,0,0,0,0,432
13,0,0,0,0,432
14,0,0,0,0,432
15,0,0,0,0,432
0,0,0,0,0,432
1,0,0,0,0,432
2,0,0,0,0,432
3,0,0,0,0,432
4,0,0,0,0,433
5,0,0,0,0,432
6,0,0,0,0,433
7,0,0,0,0,433
8,0,0,0,0,433
9,0,0,0,0,433
10,0,0,0,0,433
11,0,0,0,0,433
12,0,0,0,0,433
13,0,0,0,0,433
14,0,0,0,0,433
15,0,0,0,0,433
0,0,0,0,0,433
1,0,0,0,0,433
2,0,0,0,0,433
3,0,0,0,0,433
4,0,0,0,0,433
5,0,0,0,0,433
6,0,0,0,0,433
7,0,0,0,0,433
8,0,0,0,0,433
9,0,0,0,0,433
10,0,0,0,0,433
11,0,0,0,0,433
12,0,0,0,0,433
13,0,0,0,0,433
14,0,0,0,0,433
15,0,0,0,0,433
0,0,0,0,0,433
1,0,0,0,0,433
2,0,0,0,0,433
3,0,0,0,0,433
4,0,0,0,0,433
5,0,0,0,0,433
6,0,0,0,0,433
7,0,0,0,0,433
8,0,0,0,0,433
9,0,0,0,0,433
10,0,0,0,0,433
11,0,0,0,0,433
12,0,0,0,0,433
13,0,0,0,0,433
14,0,0,0,0,433
15,0,0,0,0,433
0,0,0,0,0,433
1,0,0,0,0,432
2,0,0,0,0,432
3,0,0,0,0,432
4,0,0,0,0,432
5,0,0,0,0,432
6,0,0,0,0,432
7,0,0,0,0,432
8,0,0,0,0,432
9,0,0,0,0,432
10,0,0,0,0,432
11,0,0,0,0,432
12,0,0,0,0,432
13,0,0,0,0,432
14,0,0,0,0,432
15,0,0,0,0,432
0,0,0,0,0,432
1,0,0,0,0,432
2,0,0,0,0,431
3,0,0,0,0,431
4,0,0,0,0,431
5,0,0,0,0,431
6,0,0,0,0,431
7,0,0,0,0,431
8,0,0,0,0,431
9,0,0,0,0,431
10,0,0,0,0,431
11,0,0,0,0,431
12,0,0,0,0,430
13,0,0,0,0,430
14,0,0,0,0,430
15,0,0,0,0,430
0,0,0,0,0,430
1,0,0,0,0,430
2,0,0,0,0,430
3,0,0,0,0,429
4,0,0,0,0,429
5,0,0,0,0,429
6,0,0,0,0,429
7,0,0,0,0,429
8,0,0,0,0,429
9,0,0,0,0,429
10,0,0,0,0,429
11,0,0,0,0,428
12,0,0,0,0,428
13,0,0,0,0,428
14,0,0,0,0,428
15,0,0,0,0,428
0,0,0,0,0,428
1,0,0,0,0,428
2,0,0,0,0,428
3,0,0,0,0,428
4,0,0,0,0,427
5,0,0,0,0,427
6,0,0,0,0,427
7,0,0,0,0,427
8,0,0,0,0,427
9,0,0,0,0,427
10,0,0,0,0,426
11,0,0,0,0,426
12,0,0,0,0,426
13,0,0,0,0,426
14,0,0,0,0,426
15,0,0,0,0,426
0,0,0,0,0,425
1,0,0,0,0,425
2,0,0,0,0,425
3,0,0,0,0,425
4,0,0,0,0,425
5,0,0,0,0,425
6,0,0,0,0,424
7,0,0,0,0,424
8,0,0,0,0,424
9,0,0,0,0,424
10,0,0,0,0,424
11,0,0,0,0,424
12,0,0,0,0,423
13,0,0,0,0,423
14,0,0,0,0,423
15,0,0,0,0,423
0,0,0,0,0,423
1,0,0,0,0,423
2,0,0,0,0,423
3,0,0,0,0,423
4,0,0,0,0,423
5,0,0,0,0,423
6,0,0,0,0,422
7,0,0,0,0,422
8,0,0,0,0,422
9,0,0,0,0,422
10,0,0,0,0,422
11,0,0,0,0,422
12,0,0,0,0,422
13,0,0,0,0,422
14,0,0,0,0,422
15,0,0,0,0,422
0,0,0,0,0,422
1,0,0,0,0,421
2,0,0,0,0,421
3,0,0,0,0,421
4,0,0,0,0,421
5,0,0,0,0,421
6,0,0,0,0,421
7,0,0,0,0,421
8,0,0,0,0,421
9,0,0,0,0,421
10,0,0,0,0,421
11,0,0,0,0,421
12,0,0,0,0,421
13,0,0,0,0,421
14,0,0,0,0,421
15,0,0,0,0,421
0,0,0,0,0,421
1,0,0,0,0,421
2,0,0,0,0,421
3,0,0,0,0,421
4,0,0,0,0,421
5,0,0,0,0,421
6,0,0,0,0,421
7,0,0,0,0,421
8,0,0,0,0,421
9,0,0,0,0,421
10,0,0,0,0,421
11,0,0,0,0,421
12,0,0,0,0,421
13,0,0,0,0,421
14,0,0,0,0,421
15,0,0,0,0,421
0,0,0,0,0,421
1,0,0,0,0,421
2,0,0,0,0,421
3,0,0,0,0,422
4,0,0,0,0,421
5,0,0,0,0,422
6,0,0,0,0,422
7,0,0,0,0,422
8,0,0,0,0,422
9,0,0,0,0,422
10,0,0,0,0,422
11,0,0,0,0,422
12,0,0,0,0,422
13,0,0,0,0,422
14,0,0,0,0,423
15,0,0,0,0,423
0,0,0,0,0,423
1,0,0,0,0,423
2,0,0,0,0,423
3,0,0,0,0,423
4,0,0,0,0,423
5,0,0,0,0,423
6,0,0,0,0,423
7,0,0,0,0,424
8,0,0,0,0,424
9,0,0,0,0,424
10,0,0,0,0,424
11,0,0,0,0,424
12,0,0,0,0,424
13,0,0,0,0,424
14,0,0,0,0,425
15,0,0,0,0,425
0,0,0,0,0,425
1,0,0,0,0,425
2,0,0,0,0,425
3,0,0,0,0,426
4,0,0,0,0,426
5,0,0,0,0,426
6,0,0,0,0,426
7,0,0,0,0,427
8,0,0,0,0,427
9,0,0,0,0,427
10,0,0,0,0,427
11,0,0,0,0,427
12,0,0,0,0,427
13,0,0,0,0,427
14,0,0,0,0,427
15,0,0,0,0,428
0,0,0,0,0,428
1,0,0,0,0,428
2,0,0,0,0,428
3,0,0,0,0,428
4,0,0,0,0,428
5,0,0,0,0,428
6,0,0,0,0,428
7,0,0,0,0,429
8,0,0,0,0,429
9,0,0,0,0,429
10,0,0,0,0,429
11,0,0,0,0,429
12,0,0,0,0,429
13,0,0,0,0,429
14,0,0,0,0,430
15,0,0,0,0,430
0,0,0,0,0,430
1,0,0,0,0,430
2,0,0,0,0,430
3,0,0,0,0,431
4,0,0,0,0,431
5,0,0,0,0,431
6,0,0,0,0,431
7,0,0,0,0,431
8,0,0,0,0,431
9,0,0,0,0,431
10,0,0,0,0,431
11,0,0,0,0,432
12,0,0,0,0,432
13,0,0,0,0,432
14,0,0,0,0,432
15,0,0,0,0,432
0,0,0,0,0,432
1,0,0,0,0,432
2,0,0,0,0,432
3,0,0,0,0,432
4,0,0,0,0,432
5,0,0,0,0,432
6,0,0,0,0,432
7,0,0,0,0,432
8,0,0,0,0,432
9,0,0,0,0,432
10,0,0,0,0,432
11,0,0,0,0,433
12,0,0,0,0,432
13,0,0,0,0,432
14,0,0,0,0,433
15,0,0,0,0,433
0,0,0,0,0,433
1,0,0,0,0,433
2,0,0,0,0,433
3,0,0,0,0,433
4,0,0,0,0,433
5,0,0,0,0,433
6,0,0,0,0,433
7,0,0,0,0,433
8,0,0,0,0,433
9,0,0,0,0,433
10,0,0,0,0,433
11,0,0,0,0,433
12,0,0,0,0,433
13,0,0,0,0,433
14,0,0,0,0,433
15,0,0,0,0,433
0,0,0,0,0,433
1,0,0,0,0,433
2,0,0,0,0,433
3,0,0,0,0,433
4,0,0,0,0,433
5,0,0,0,0,433
6,0,0,0,0,433
7,0,0,0,0,433
8,0,0,0,0,433
9,0,0,0,0,433
10,0,0,0,0,433
11,0,0,0,0,433
12,0,0,0,0,433
13,0,0,0,0,433
14,0,0,0,0,433
15,0,0,0,0,433
0,0,0,0,0,433
1,0,0,0,0,433
2,0,0,0,0,433
3,0,0,0,0,433
4,0,0,0,0,433
5,0,0,0,0,433
6,0,0,0,0,433
7,0,0,0,0,433
8,0,0,0,0,433
9,0,0,0,0,433
10,0,0,0,0,433
11,0,0,0,0,433
12,0,0,0,0,432
13,0,0,0,0,432
14,0,0,0,0,432
15,0,0,0,0,432
0,0,0,0,0,432
1,0,0,0,0,432
2,0,0,0,0,432
3,0,0,0,0,432
4,0,0,0,0,432
5,0,0,0,0,432
6,0,0,0,0,432
7,0,0,0,0,432
8,0,0,0,0,432
9,0,0,0,0,432
10,0,0,0,0,432
11,0,0,0,0,431
12,0,0,0,0,431
13,0,0,0,0,431
14,0,0,0,0,431
15,0,0,0,0,431
0,0,0,0,0,431
1,0,0,0,0,431
2,0,0,0,0,431
3,0,0,0,0,431
4,0,0,0,0,430
5,0,0,0,0,430
6,0,0,0,0,430
7,0,0,0,0,430
8,0,0,0,0,430
9,0,0,0,0,430
10,0,0,0,0,430
11,0,0,0,0,430
12,0,0,0,0,429
13,0,0,0,0,429
14,0,0,0,0,429
15,0,0,0,0,429
0,0,0,0,0,429
1,0,0,0,0,429
2,0,0,0,0,428
3,0,0,0,0,428
4,0,0,0,0,428
5,0,0,0,0,428
6,0,0,0,0,428
7,0,0,0,0,428
8,0,0,0,0,428
9,0,0,0,0,428
10,0,0,0,0,428
11,0,0,0,0,428
12,0,0,0,0,427
13,0,0,0,0,427
14,0,0,0,0,427
15,0,0,0,0,427
0,0,0,0,0,427
1,0,0,0,0,427
2,0,0,0,0,427
3,0,0,0,0,427
4,0,0,0,0,426
5,0,0,0,0,426
6,0,0,0,0,426
7,0,0,0,0,426
8,0,0,0,0,426
9,0,0,0,0,425
10,0,0,0,0,425
11,0,0,0,0,425
12,0,0,0,0,425
13,0,0,0,0,425
14,0,0,0,0,425
15,0,0,0,0,425
0,0,0,0,0,424
1,0,0,0,0,424
2,0,0,0,0,424
3,0,0,0,0,424
4,0,0,0,0,424
5,0,0,0,0,424
6,0,0,0,0,424
7,0,0,0,0,423
8,0,0,0,0,423
9,0,0,0,0,423
10,0,0,0,0,423
11,0,0,0,0,423
12,0,0,0,0,423
13,0,0,0,0,423
14,0,0,0,0,423
15,0,0,0,0,423
0,0,0,0,0,423
1,0,0,0,0,422
2,0,0,0,0,422
3,0,0,0,0,422
4,0,0,0,0,422
5,0,0,0,0,422
6,0,0,0,0,422
7,0,0,0,0,421
8,0,0,0,0,421
9,0,0,0,0,421
10,0,0,0,0,421
11,0,0,0,0,421
12,0,0,0,0,420
13,0,0,0,0,420
14,0,0,0,0,420
15,0,0,0,0,420
0,0,0,0,0,420
1,0,0,0,0,419
2,0,0,0,0,419
3,0,0,0,0,419
4,0,0,0,0,419
5,0,0,0,0,419
6,0,0,0,0,419
7,0,0,0,0,419
8,0,0,0,0,419
9,0,0,0,0,418
10,0,0,0,0,418
11,0,0,0,0,418
12,0,0,0,0,418
13,0,0,0,0,418
14,0,0,0,0,418
15,0,0,0,0,417
0,0,0,0,0,417
1,0,0,0,0,417
2,0,0,0,0,417
3,0,0,0,0,417
4,0,0,0,0,417
5,0,0,0,0,417
6,0,0,0,0,417
7,0,0,0,0,417
8,0,0,0,0,416
9,0,0,0,0,416
10,0,0,0,0,416
11,0,0,0,0,417
12,0,0,0,0,416
13,0,0,0,0,416
14,0,0,0,0,416
15,0,0,0,0,416
0,0,0,0,0,416
1,0,0,0,0,416
2,0,0,0,0,416
3,0,0,0,0,416
4,0,0,0,0,416
5,0,0,0,0,416
6,0,0,0,0,416
7,0,0,0,0,416
8,0,0,0,0,416
9,0,0,0,0,416
10,0,0,0,0,416
11,0,0,0,0,416
12,0,0,0,0,416
13,0,0,0,0,417
14,0,0,0,0,417
15,0,0,0,0,417
0,0,0,0,0,417
1,0,0,0,0,417
2,0,0,0,0,417
3,0,0,0,0,417
4,0,0,0,0,417
5,0,0,0,0,418
6,0,0,0,0,418
7,0,0,0,0,418
8,0,0,0,0,418
9,0,0,0,0,418
10,0,0,0,0,419
11,0,0,0,0,419
12,0,0,0,0,419
13,0,0,0,0,419
14,0,0,0,0,419
15,0,0,0,0,419
0,0,0,0,0,420
1,0,0,0,0,420
2,0,0,0,0,420
3,0,0,0,0,420
4,0,0,0,0,421
5,0,0,0,0,421
6,0,0,0,0,421
7,0,0,0,0,422
8,0,0,0,0,422
9,0,0,0,0,422
10,0,0,0,0,422
11,0,0,0,0,422
12,0,0,0,0,423
13,0,0,0,0,423
14,0,0,0,0,423
15,0,0,0,0,423
0,0,0,0,0,423
1,0,0,0,0,423
2,0,0,0,0,423
3,0,0,0,0,424
4,0,0,0,0,424
5,0,0,0,0,424
6,0,0,0,0,424
7,0,0,0,0,425
8,0,0,0,0,425
9,0,0,0,0,425
10,0,0,0,0,425
11,0,0,0,0,426
12,0,0,0,0,426
13,0,0,0,0,426
14,0,0,0,0,426
15,0,0,0,0,427
0,0,0,0,0,427
1,0,0,0,0,427
2,0,0,0,0,427
3,0,0,0,0,427
4,0,0,0,0,427
5,0,0,0,0,428
6,0,0,0,0,428
7,0,0,0,0,428
8,0,0,0,0,428
9,0,0,0,0,428
10,0,0,0,0,428
11,0,0,0,0,429
12,0,0,0,0,429
13,0,0,0,0,429
14,0,0,0,0,429
15,0,0,0,0,429
0,0,0,0,0,429
1,0,0,0,0,430
2,0,0,0,0,430
3,0,0,0,0,430
4,0,0,0,0,430
5,0,0,0,0,430
6,0,0,0,0,430
7,0,0,0,0,430
8,0,0,0,0,430
9,0,0,0,0,431
10,0,0,0,0,431
11,0,0,0,0,431
12,0,0,0,0,431
13,0,0,0,0,431
14,0,0,0,0,431
15,0,0,0,0,431
0,0,0,0,0,431
1,0,0,0,0,431
2,0,0,0,0,431
3,0,0,0,0,431
4,0,0,0,0,431
5,0,0,0,0,431
6,0,0,0,0,431
7,0,0,0,0,431
8,0,0,0,0,431
9,0,0,0,0,432
10,0,0,0,0,432
11,0,0,0,0,432
12,0,0,0,0,432
13,0,0,0,0,432
14,0,0,0,0,432
15,0,0,0,0,432
0,0,0,0,0,432
1,0,0,0,0,432
2,0,0,0,0,432
3,0,0,0,0,432
4,0,0,0,0,432
5,0,0,0,0,432
6,0,0,0,0,432
7,0,0,0,0,432
8,0,0,0,0,432
9,0,0,0,0,432
10,0,0,0,0,432
11,0,0,0,0,432
12,0,0,0,0,432
13,0,0,0,0,432
14,0,0,0,0,432
15,0,0,0,0,432
0,0,0,0,0,432
1,0,0,0,0,432
2,0,0,0,0,432
3,0,0,0,0,433
4,0,0,0,0,432
5,0,0,0,0,432
6,0,0,0,0,432
7,0,0,0,0,433
8,0,0,0,0,433
9,0,0,0,0,433
10,0,0,0,0,433
11,0,0,0,0,433
12,0,0,0,0,433
13,0,0,0,0,433
14,0,0,0,0,433
15,0,0,0,0,433
0,0,0,0,0,433
1,0,0,0,0,433
2,0,0,0,0,433
3,0,0,0,0,433
4,0,0,0,0,433
5,0,0,0,0,433
6,0,0,0,0,433
7,0,0,0,0,433
8,0,0,0,0,433
9,0,0,0,0,433
10,0,0,0,0,433
11,0,0,0,0,433
12,0,0,0,0,433
13,0,0,0,0,433
14,0,0,0,0,433
15,0,0,0,0,434
0,0,0,0,0,434
1,0,0,0,0,434
2,0,0,0,0,434
3,0,0,0,0,434
4,0,0,0,0,434
5,0,0,0,0,434
6,0,0,0,0,434
7,0,0,0,0,434
8,0,0,0,0,434
9,0,0,0,0,434
10,0,0,0,0,434
11,0,0,0,0,435
12,0,0,0,0,434
13,0,0,0,0,435
14,0,0,0,0,435
15,0,0,0,0,435
0,0,0,0,0,435
1,0,0,0,0,435
2,0,0,0,0,435
3,0,0,0,0,435
4,0,0,0,0,435
5,0,0,0,0,435
6,0,0,0,0,435
7,0,0,0,0,435
8,0,0,0,0,435
9,0,0,0,0,435
10,0,0,0,0,435
11,0,0,0,0,435
12,0,0,0,0,435
13,0,0,0,0,435
14,0,0,0,0,435
15,0,0,0,0,435
0,0,0,0,0,435
1,0,0,0,0,435
2,0,0,0,0,435
3,0,0,0,0,435
4,0,0,0,0,435
5,0,0,0,0,435
6,0,0,0,0,435
7,0,0,0,0,435
8,0,0,0,0,435
9,0,0,0,0,434
10,0,0,0,0,434
11,0,0,0,0,435
12,0,0,0,0,434
13,0,0,0,0,434
14,0,0,0,0,434
15,0,0,0,0,434
0,0,0,0,0,434
1,0,0,0,0,434
2,0,0,0,0,434
3,0,0,0,0,434
4,0,0,0,0,434
5,0,0,0,0,434
6,0,0,0,0,434
7,0,0,0,0,434
8,0,0,0,0,433
9,0,0,0,0,433
10,0,0,0,0,433
11,0,0,0,0,433
12,0,0,0,0,433
13,0,0,0,0,433
14,0,0,0,0,433
15,0,0,0,0,433
0,0,0,0,0,433
1,0,0,0,0,433
2,0,0,0,0,433
3,0,0,0,0,433
4,0,0,0,0,433
5,0,0,0,0,433
6,0,0,0,0,433
7,0,0,0,0,433
8,0,0,0,0,432
9,0,0,0,0,432
10,0,0,0,0,432
11,0,0,0,0,432
12,0,0,0,0,432
13,0,0,0,0,432
14,0,0,0,0,432
15,0,0,0,0,432
0,0,0,0,0,431
1,0,0,0,0,431
2,0,0,0,0,431
3,0,0,0,0,431
4,0,0,0,0,431
5,0,0,0,0,431
6,0,0,0,0,431
7,0,0,0,0,431
8,0,0,0,0,431
9,0,0,0,0,430
10,0,0,0,0,430
11,0,0,0,0,430
12,0,0,0,0,430
13,0,0,0,0,430
14,0,0,0,0,430
15,0,0,0,0,430
0,0,0,0,0,429
1,0,0,0,0,429
2,0,0,0,0,429
3,0,0,0,0,429
4,0,0,0,0,428
5,0,0,0,0,428
6,0,0,0,0,428
7,0,0,0,0,428
8,0,0,0,0,428
9,0,0,0,0,428
10,0,0,0,0,427
11,0,0,0,0,427
12,0,0,0,0,427
13,0,0,0,0,427
14,0,0,0,0,427
15,0,0,0,0,427
0,0,0,0,0,426
1,0,0,0,0,426
2,0,0,0,0,426
3,0,0,0,0,426
4,0,0,0,0,425
5,0,0,0,0,425
6,0,0,0,0,425
7,0,0,0,0,425
8,0,0,0,0,425
9,0,0,0,0,425
10,0,0,0,0,424
11,0,0,0,0,425
12,0,0,0,0,424
13,0,0,0,0,424
14,0,0,0,0,424
15,0,0,0,0,424
0,0,0,0,0,423
1,0,0,0,0,423
2,0,0,0,0,423
3,0,0,0,0,423
4,0,0,0,0,423
5,0,0,0,0,423
6,0,0,0,0,423
7,0,0,0,0,423
8,0,0,0,0,422
9,0,0,0,0,422
10,0,0,0,0,422
11,0,0,0,0,422
12,0,0,0,0,422
13,0,0,0,0,422
14,0,0,0,0,421
15,0,0,0,0,421
0,0,0,0,0,421
1,0,0,0,0,420
2,0,0,0,0,420
3,0,0,0,0,420
4,0,0,0,0,420
5,0,0,0,0,420
6,0,0,0,0,420
7,0,0,0,0,420
8,0,0,0,0,419
9,0,0,0,0,419
10,0,0,0,0,419
11,0,0,0,0,419
12,0,0,0,0,419
13,0,0,0,0,419
14,0,0,0,0,419
15,0,0,0,0,418
0,0,0,0,0,418
1,0,0,0,0,418
2,0,0,0,0,418
3,0,0,0,0,418
4,0,0,0,0,417
5,0,0,0,0,417
6,0,0,0,0,417
7,0,0,0,0,417
8,0,0,0,0,417
9,0,0,0,0,417
10,0,0,0,0,417
11,0,0,0,0,416
12,0,0,0,0,416
13,0,0,0,0,416
14,0,0,0,0,416
15,0,0,0,0,416
0,0,0,0,0,415
1,0,0,0,0,415
2,0,0,0,0,415
3,0,0,0,0,415
4,0,0,0,0,415
5,0,0,0,0,415
6,0,0,0,0,415
7,0,0,0,0,415
8,0,0,0,0,415
9,0,0,0,0,414
10,0,0,0,0,414
11,0,0,0,0,414
12,0,0,0,0,414
13,0,0,0,0,414
14,0,0,0,0,414
15,0,0,0,0,414
0,0,0,0,0,414
1,0,0,0,0,414
2,0,0,0,0,413
3,0,0,0,0,413
4,0,0,0,0,413
5,0,0,0,0,413
6,0,0,0,0,413
7,0,0,0,0,413
8,0,0,0,0,412
9,0,0,0,0,412
10,0,0,0,0,412
11,0,0,0,0,412
12,0,0,0,0,412
13,0,0,0,0,412
14,0,0,0,0,412
15,0,0,0,0,412
0,0,0,0,0,412
1,0,0,0,0,412
2,0,0,0,0,412
3,0,0,0,0,412
4,0,0,0,0,411
5,0,0,0,0,411
6,0,0,0,0,411
7,0,0,0,0,411
8,0,0,0,0,411
9,0,0,0,0,411
10,0,0,0,0,411
11,0,0,0,0,411
12,0,0,0,0,410
13,0,0,0,0,410
14,0,0,0,0,410
15,0,0,0,0,410
0,0,0,0,0,410
1,0,0,0,0,410
2,0,0,0,0,410
3,0,0,0,0,410
4,0,0,0,0,409
5,0,0,0,0,409
6,0,0,0,0,409
7,0,0,0,0,409
8,0,0,0,0,409
9,0,0,0,0,409
10,0,0,0,0,409
11,0,0,0,0,409
12,0,0,0,0,408
13,0,0,0,0,408
14,0,0,0,0,408
15,0,0,0,0,408
0,0,0,0,0,408
1,0,0,0,0,408
2,0,0,0,0,408
3,0,0,0,0,408
4,0,0,0,0,408
5,0,0,0,0,408
6,0,0,0,0,408
7,0,0,0,0,408
8,0,0,0,0,407
9,0,0,0,0,407
10,0,0,0,0,407
11,0,0,0,0,407
12,0,0,0,0,407
13,0,0,0,0,407
14,0,0,0,0,407
15,0,0,0,0,407
0,0,0,0,0,407
1,0,0,0,0,406
2,0,0,0,0,406
3,0,0,0,0,406
4,0,0,0,0,406
5,0,0,0,0,406
6,0,0,0,0,406
7,0,0,0,0,406
8,0,0,0,0,406
9,0,0,0,0,406
10,0,0,0,0,406
11,0,0,0,0,405
12,0,0,0,0,405
13,0,0,0,0,405
14,0,0,0,0,405
15,0,0,0,0,405
0,0,0,0,0,404
1,0,0,0,0,404
2,0,0,0,0,404
3,0,0,0,0,404
4,0,0,0,0,404
5,0,0,0,0,404
6,0,0,0,0,404
7,0,0,0,0,404
8,0,0,0,0,403
9,0,0,0,0,403
10,0,0,0,0,403
11,0,0,0,0,403
12,0,0,0,0,403
13,0,0,0,0,403
14,0,0,0,0,403
15,0,0,0,0,403
0,0,0,0,0,403
1,0,0,0,0,403
2,0,0,0,0,403
3,0,0,0,0,403
4,0,0,0,0,402
5,0,0,0,0,402
6,0,0,0,0,402
7,0,0,0,0,402
8,0,0,0,0,402
9,0,0,0,0,402
10,0,0,0,0,401
11,0,0,0,0,401
12,0,0,0,0,401
13,0,0,0,0,401
14,0,0,0,0,401
15,0,0,0,0,401
0,0,0,0,0,401
1,0,0,0,0,401
2,0,0,0,0,400
3,0,0,0,0,401
4,0,0,0,0,400
5,0,0,0,0,400
6,0,0,0,0,400
7,0,0,0,0,400
8,0,0,0,0,400
9,0,0,0,0,400
10,0,0,0,0,399
11,0,0,0,0,399
12,0,0,0,0,399
13,0,0,0,0,399
14,0,0,0,0,399
15,0,0,0,0,399
0,0,0,0,0,399
1,0,0,0,0,399
2,0,0,0,0,398
3,0,0,0,0,399
4,0,0,0,0,398
5,0,0,0,0,398
6,0,0,0,0,398
7,0,0,0,0,398
8,0,0,0,0,398
9,0,0,0,0,398
10,0,0,0,0,398
11,0,0,0,0,398
12,0,0,0,0,397
13,0,0,0,0,397
14,0,0,0,0,397
15,0,0,0,0,397
0,0,0,0,0,397
1,0,0,0,0,397
2,0,0,0,0,396
3,0,0,0,0,397
4,0,0,0,0,396
5,0,0,0,0,396
6,0,0,0,0,396
7,0,0,0,0,396
8,0,0,0,0,396
9,0,0,0,0,396
10,0,0,0,0,396
11,0,0,0,0,396
12,0,0,0,0,396
13,0,0,0,0,396
14,0,0,0,0,396
15,0,0,0,0,396
0,0,0,0,0,395
1,0,0,0,0,395
2,0,0,0,0,395
3,0,0,0,0,395
4,0,0,0,0,395
5,0,0,0,0,395
6,0,0,0,0,395
7,0,0,0,0,395
8,0,0,0,0,395
9,0,0,0,0,395
10,0,0,0,0,394
11,0,0,0,0,394
12,0,0,0,0,394
13,0,0,0,0,394
14,0,0,0,0,394
15,0,0,0,0,394
0,0,0,0,0,394
1,0,0,0,0,394
2,0,0,0,0,394
3,0,0,0,0,394
4,0,0,0,0,393
5,0,0,0,0,393
6,0,0,0,0,393
7,0,0,0,0,393
8,0,0,0,0,393
9,0,0,0,0,393
10,0,0,0,0,393
11,0,0,0,0,393
12,0,0,0,0,393
13,0,0,0,0,393
14,0,0,0,0,393
15,0,0,0,0,393
0,0,0,0,0,393
1,0,0,0,0,393
2,0,0,0,0,393
3,0,0,0,0,393
4,0,0,0,0,392
5,0,0,0,0,392
6,0,0,0,0,392
7,0,0,0,0,392
8,0,0,0,0,392
9,0,0,0,0,392
10,0,0,0,0,392
11,0,0,0,0,392
12,0,0,0,0,392
13,0,0,0,0,391
14,0,0,0,0,391
15,0,0,0,0,391
0,0,0,0,0,391
1,0,0,0,0,391
2,0,0,0,0,391
3,0,0,0,0,391
4,0,0,0,0,391
5,0,0,0,0,391
6,0,0,0,0,391
7,0,0,0,0,391
8,0,0,0,0,391
9,0,0,0,0,391
10,0,0,0,0,391
11,0,0,0,0,391
12,0,0,0,0,391
13,0,0,0,0,390
14,0,0,0,0,391
15,0,0,0,0,391
0,0,0,0,0,390
1,0,0,0,0,390
2,0,0,0,0,390
3,0,0,0,0,390
4,0,0,0,0,390
5,0,0,0,0,390
6,0,0,0,0,390
7,0,0,0,0,390
8,0,0,0,0,390
9,0,0,0,0,390
10,0,0,0,0,390
11,0,0,0,0,390
12,0,0,0,0,390
13,0,0,0,0,390
14,0,0,0,0,389
15,0,0,0,0,390
0,0,0,0,0,389
1,0,0,0,0,389
2,0,0,0,0,389
3,0,0,0,0,389
4,0,0,0,0,389
5,0,0,0,0,389
6,0,0,0,0,389
7,0,0,0,0,389
8,0,0,0,0,389
9,0,0,0,0,389
10,0,0,0,0,389
11,0,0,0,0,389
12,0,0,0,0,389
13,0,0,0,0,389
14,0,0,0,0,389
15,0,0,0,0,389
0,0,0,0,0,389
1,0,0,0,0,389
2,0,0,0,0,389
3,0,0,0,0,389
4,0,0,0,0,389
5,0,0,0,0,389
6,0,0,0,0,389
7,0,0,0,0,389
8,0,0,0,0,389
9,0,0,0,0,389
10,0,0,0,0,389
11,0,0,0,0,389
12,0,0,0,0,389
13,0,0,0,0,389
14,0,0,0,0,389
15,0,0,0,0,389
0,0,0,0,0,389
1,0,0,0,0,389
2,0,0,0,0,389
3,0,0,0,0,390
4,0,0,0,0,389
5,0,0,0,0,389
6,0,0,0,0,399
7,0,0,0,0,416
8,0,0,0,0,432
9,0,0,0,0,446
10,0,0,0,0,458
11,0,0,0,0,469
12,0,0,0,0,480
13,0,0,0,0,492
14,0,0,0,0,506
15,0,0,0,0,521
0,0,0,0,0,535
1,0,0,0,0,546
2,0,0,0,0,557
3,0,0,0,0,567
4,0,0,0,0,575
5,0,0,0,0,582
6,0,0,0,0,588
7,0,0,0,0,594
8,0,0,0,0,598
9,0,0,0,0,602
10,0,0,0,0,605
11,0,0,0,0,608
12,0,0,0,0,610
13,0,0,0,0,612
14,0,0,0,0,613
15,0,0,0,0,615
0,0,0,0,0,617
1,0,0,0,0,620
2,0,0,0,0,623
3,0,0,0,0,627
4,0,0,0,0,631
5,0,0,0,0,636
6,0,0,0,0,643
7,0,0,0,0,652
8,0,0,0,0,660
9,0,0,0,0,668
10,0,0,0,0,674
11,0,0,0,0,689
12,0,0,0,0,708
13,0,0,0,0,723
14,0,0,0,0,735
15,0,0,0,0,745
0,0,0,0,0,754
1,0,0,0,0,763
2,0,0,0,0,771
3,0,0,0,0,779
4,0,0,0,0,784
5,0,0,0,0,790
6,0,0,0,0,796
7,0,0,0,0,803
8,0,0,0,0,808
9,0,0,0,0,813
10,0,0,0,0,817
11,0,0,0,0,821
12,0,0,0,0,824
13,0,0,0,0,827
14,0,0,0,0,830
15,0,0,0,0,831
0,0,0,0,0,833
1,0,0,0,0,835
2,0,0,0,0,836
3,0,0,0,0,838
4,0,0,0,0,839
5,0,0,0,0,841
6,0,0,0,0,843
7,0,0,0,0,845
8,0,0,0,0,846
9,0,0,0,0,847
10,0,0,0,0,848
11,0,0,0,0,849
12,0,0,0,0,851
13,0,0,0,0,852
14,0,0,0,0,853
15,0,0,0,0,854
0,0,0,0,0,855
1,0,0,0,0,856
2,0,0,0,0,856
3,0,0,0,0,857
4,0,0,0,0,859
5,0,0,0,0,859
6,0,0,0,0,860
7,0,0,0,0,861
8,0,0,0,0,862
9,0,0,0,0,863
10,0,0,0,0,864
11,0,0,0,0,864
12,0,0,0,0,866
13,0,0,0,0,868
14,0,0,0,0,870
15,0,0,0,0,872
0,0,0,0,0,874
1,0,0,0,0,877
2,0,0,0,0,880
3,0,0,0,0,882
4,0,0,0,0,884
5,0,0,0,0,887
6,0,0,0,0,888
7,0,0,0,0,890
8,0,0,0,0,891
9,0,0,0,0,893
10,0,0,0,0,894
11,0,0,0,0,896
12,0,0,0,0,896
13,0,0,0,0,897
14,0,0,0,0,899
15,0,0,0,0,899
0,0,0,0,0,900
1,0,0,0,0,901
2,0,0,0,0,902
3,0,0,0,0,903
4,0,0,0,0,905
5,0,0,0,0,907
6,0,0,0,0,908
7,0,0,0,0,910
8,0,0,0,0,911
9,0,0,0,0,912
10,0,0,0,0,913
11,0,0,0,0,914
12,0,0,0,0,915
13,0,0,0,0,916
14,0,0,0,0,916
15,0,0,0,0,917
0,0,0,0,0,918
1,0,0,0,0,918
2,0,0,0,0,919
3,0,0,0,0,920
4,0,0,0,0,920
5,0,0,0,0,921
6,0,0,0,0,922
7,0,0,0,0,923
8,0,0,0,0,923
9,0,0,0,0,923
10,0,0,0,0,924
11,0,0,0,0,924
12,0,0,0,0,924
13,0,0,0,0,924
14,0,0,0,0,925
15,0,0,0,0,925
0,0,0,0,0,925
1,0,0,0,0,925
2,0,0,0,0,925
3,0,0,0,0,925
4,0,0,0,0,925
5,0,0,0,0,925
6,0,0,0,0,925
7,0,0,0,0,925
8,0,0,0,0,925
9,0,0,0,0,924
10,0,0,0,0,924
11,0,0,0,0,924
12,0,0,0,0,924
13,0,0,0,0,924
14,0,0,0,0,924
15,0,0,0,0,924
0,0,0,0,0,924
1,0,0,0,0,924
2,0,0,0,0,925
3,0,0,0,0,925
4,0,0,0,0,925
5,0,0,0,0,925
6,0,0,0,0,924
7,0,0,0,0,924
8,0,0,0,0,924
9,0,0,0,0,924
10,0,0,0,0,924
11,0,0,0,0,924
12,0,0,0,0,924
13,0,0,0,0,924
14,0,0,0,0,924
15,0,0,0,0,924
0,0,0,0,0,923
1,0,0,0,0,923
2,0,0,0,0,923
3,0,0,0,0,923
4,0,0,0,0,923
5,0,0,0,0,923
6,0,0,0,0,922
7,0,0,0,0,922
8,0,0,0,0,922
9,0,0,0,0,922
10,0,0,0,0,922
11,0,0,0,0,922
12,0,0,0,0,921
13,0,0,0,0,921
14,0,0,0,0,921
15,0,0,0,0,921
0,0,0,0,0,921
1,0,0,0,0,921
2,0,0,0,0,921
3,0,0,0,0,921
4,0,0,0,0,921
5,0,0,0,0,920
6,0,0,0,0,920
7,0,0,0,0,920
8,0,0,0,0,920
9,0,0,0,0,920
10,0,0,0,0,920
11,0,0,0,0,920
12,0,0,0,0,920
13,0,0,0,0,920
14,0,0,0,0,920
15,0,0,0,0,920
0,0,0,0,0,920
1,0,0,0,0,920
2,0,0,0,0,920
3,0,0,0,0,920
4,0,0,0,0,920
5,0,0,0,0,920
6,0,0,0,0,920
7,0,0,0,0,920
8,0,0,0,0,920
9,0,0,0,0,920
10,0,0,0,0,920
11,0,0,0,0,920
12,0,0,0,0,920
13,0,0,0,0,920
14,0,0,0,0,920
15,0,0,0,0,920
0,0,0,0,0,920
1,0,0,0,0,920
2,0,0,0,0,920
3,0,0,0,0,919
4,0,0,0,0,920
5,0,0,0,0,920
6,0,0,0,0,920
7,0,0,0,0,920
8,0,0,0,0,920
9,0,0,0,0,920
10,0,0,0,0,920
11,0,0,0,0,920
12,0,0,0,0,920
13,0,0,0,0,920
14,0,0,0,0,919
15,0,0,0,0,920
0,0,0,0,0,920
1,0,0,0,0,920
2,0,0,0,0,920
3,0,0,0,0,921
4,0,0,0,0,921
5,0,0,0,0,921
6,0,0,0,0,922
7,0,0,0,0,922
8,0,0,0,0,923
9,0,0,0,0,923
10,0,0,0,0,924
11,0,0,0,0,925
12,0,0,0,0,925
13,0,0,0,0,925
14,0,0,0,0,925
15,0,0,0,0,924
0,0,0,0,0,924
1,0,0,0,0,916
2,0,0,0,0,886
3,0,0,0,0,840
4,0,0,0,0,773
5,0,0,0,0,707
6,0,0,0,0,652
7,0,0,0,0,607
8,0,0,0,0,569
9,0,0,0,0,538
10,0,0,0,0,512
11,0,0,0,0,490
12,0,0,0,0,472
13,0,0,0,0,456
14,0,0,0,0,444
15,0,0,0,0,433
0,0,0,0,0,424
1,0,0,0,0,417
2,0,0,0,0,410
3,0,0,0,0,405
4,0,0,0,0,401
5,0,0,0,0,397
6,0,0,0,0,394
7,0,0,0,0,391
8,0,0,0,0,389
9,0,0,0,0,387
10,0,0,0,0,386
11,0,0,0,0,384
12,0,0,0,0,383
13,0,0,0,0,383
14,0,0,0,0,382
15,0,0,0,0,381
0,0,0,0,0,380
1,0,0,0,0,380
2,0,0,0,0,379
3,0,0,0,0,379
4,0,0,0,0,379
5,0,0,0,0,378
6,0,0,0,0,378
7,0,0,0,0,378
8,0,0,0,0,378
9,0,0,0,0,377
10,0,0,0,0,377
11,0,0,0,0,377
12,0,0,0,0,377
13,0,0,0,0,377
14,0,0,0,0,377
15,0,0,0,0,377
0,0,0,0,0,377
1,0,0,0,0,377
2,0,0,0,0,376
3,0,0,0,0,377
4,0,0,0,0,377
5,0,0,0,0,376
6,0,0,0,0,376
7,0,0,0,0,376
8,0,0,0,0,376
9,0,0,0,0,376
10,0,0,0,0,376
11,0,0,0,0,376
12,0,0,0,0,376
13,0,0,0,0,376
14,0,0,0,0,376
15,0,0,0,0,376
0,0,0,0,0,376
1,0,0,0,0,376
2,0,0,0,0,376
3,0,0,0,0,376
4,0,0,0,0,376
5,0,0,0,0,376
6,0,0,0,0,377
7,0,0,0,0,377
8,0,0,0,0,377
9,0,0,0,0,376
10,0,0,0,0,377
11,0,0,0,0,377
12,0,0,0,0,376
13,0,0,0,0,376
14,0,0,0,0,376
15,0,0,0,0,377
0,0,0,0,0,377
1,0,0,0,0,376
2,0,0,0,0,377
3,0,0,0,0,377
4,0,0,0,0,377
5,0,0,0,0,377
6,0,0,0,0,377
7,0,0,0,0,377
8,0,0,0,0,377
9,0,0,0,0,377
10,0,0,0,0,377
11,0,0,0,0,377
12,0,0,0,0,377
13,0,0,0,0,377
14,0,0,0,0,377
15,0,0,0,0,377
0,0,0,0,0,377
1,0,0,0,0,377
2,0,0,0,0,377
3,0,0,0,0,377
4,0,0,0,0,377
5,0,0,0,0,377
6,0,0,0,0,377
7,0,0,0,0,377
8,0,0,0,0,377
9,0,0,0,0,377
10,0,0,0,0,377
11,0,0,0,0,378
12,0,0,0,0,378
13,0,0,0,0,378
14,0,0,0,0,378
15,0,0,0,0,378
0,0,0,0,0,378
1,0,0,0,0,378
2,0,0,0,0,378
3,0,0,0,0,378
4,0,0,0,0,379
5,0,0,0,0,379
6,0,0,0,0,379
7,0,0,0,0,379
8,0,0,0,0,379
9,0,0,0,0,379
10,0,0,0,0,379
11,0,0,0,0,379
12,0,0,0,0,379
13,0,0,0,0,379
14,0,0,0,0,380
15,0,0,0,0,380
0,0,0,0,0,380
1,0,0,0,0,380
2,0,0,0,0,380
3,0,0,0,0,380
4,0,0,0,0,380
5,0,0,0,0,380
6,0,0,0,0,380
7,0,0,0,0,381
8,0,0,0,0,381
9,0,0,0,0,381
10,0,0,0,0,381
11,0,0,0,0,381
12,0,0,0,0,381
13,0,0,0,0,382
14,0,0,0,0,382
15,0,0,0,0,382
0,0,0,0,0,382
1,0,0,0,0,382
2,0,0,0,0,382
3,0,0,0,0,382
4,0,0,0,0,382
5,0,0,0,0,383
6,0,0,0,0,383
7,0,0,0,0,383
8,0,0,0,0,383
9,0,0,0,0,383
10,0,0,0,0,383
11,0,0,0,0,383
12,0,0,0,0,383
13,0,0,0,0,384
14,0,0,0,0,384
15,0,0,0,0,384
0,0,0,0,0,384
1,0,0,0,0,384
2,0,0,0,0,384
3,0,0,0,0,384
4,0,0,0,0,384
5,0,0,0,0,384
6,0,0,0,0,384
7,0,0,0,0,384
8,0,0,0,0,384
9,0,0,0,0,384
10,0,0,0,0,385
11,0,0,0,0,385
12,0,0,0,0,385
13,0,0,0,0,385
14,0,0,0,0,385
15,0,0,0,0,385
0,0,0,0,0,385
1,0,0,0,0,385
2,0,0,0,0,385
3,0,0,0,0,385
4,0,0,0,0,385
5,0,0,0,0,385
6,0,0,0,0,385
7,0,0,0,0,385
8,0,0,0,0,386
9,0,0,0,0,385
10,0,0,0,0,385
11,0,0,0,0,386
12,0,0,0,0,386
13,0,0,0,0,385
14,0,0,0,0,386
15,0,0,0,0,386
0,0,0,0,0,386
1,0,0,0,0,385
2,0,0,0,0,385
3,0,0,0,0,386
4,0,0,0,0,385
5,0,0,0,0,385
6,0,0,0,0,385
7,0,0,0,0,386
8,0,0,0,0,385
9,0,0,0,0,385
10,0,0,0,0,385
11,0,0,0,0,385
12,0,0,0,0,385
13,0,0,0,0,385
14,0,0,0,0,385
15,0,0,0,0,385
0,0,0,0,0,385
1,0,0,0,0,385
2,0,0,0,0,385
3,0,0,0,0,385
4,0,0,0,0,385
5,0,0,0,0,385
6,0,0,0,0,385
7,0,0,0,0,385
8,0,0,0,0,384
9,0,0,0,0,384
10,0,0,0,0,384
11,0,0,0,0,384
12,0,0,0,0,384
13,0,0,0,0,384
14,0,0,0,0,384
15,0,0,0,0,384
0,0,0,0,0,384
1,0,0,0,0,384
2,0,0,0,0,384
3,0,0,0,0,384
4,0,0,0,0,384
5,0,0,0,0,383
6,0,0,0,0,383
7,0,0,0,0,383
8,0,0,0,0,383
9,0,0,0,0,383
10,0,0,0,0,383
11,0,0,0,0,383
12,0,0,0,0,383
13,0,0,0,0,383
14,0,0,0,0,383
15,0,0,0,0,383
0,0,0,0,0,382
1,0,0,0,0,382
2,0,0,0,0,382
3,0,0,0,0,382
4,0,0,0,0,382
5,0,0,0,0,382
6,0,0,0,0,382
7,0,0,0,0,382
8,0,0,0,0,381
9,0,0,0,0,381
10,0,0,0,0,381
11,0,0,0,0,381
12,0,0,0,0,381
13,0,0,0,0,380
14,0,0,0,0,380
15,0,0,0,0,380
0,0,0,0,0,380
1,0,0,0,0,380
2,0,0,0,0,380
3,0,0,0,0,380
4,0,0,0,0,380
5,0,0,0,0,380
6,0,0,0,0,379
7,0,0,0,0,379
8,0,0,0,0,379
9,0,0,0,0,379
10,0,0,0,0,379
11,0,0,0,0,379
12,0,0,0,0,379
13,0,0,0,0,378
14,0,0,0,0,378
15,0,0,0,0,378
0,0,0,0,0,378
1,0,0,0,0,378
2,0,0,0,0,378
3,0,0,0,0,377
4,0,0,0,0,377
5,0,0,0,0,377
6,0,0,0,0,377
7,0,0,0,0,377
8,0,0,0,0,377
9,0,0,0,0,377
10,0,0,0,0,377
11,0,0,0,0,376
12,0,0,0,0,376
13,0,0,0,0,376
14,0,0,0,0,376
15,0,0,0,0,376
0,0,0,0,0,376
1,0,0,0,0,376
2,0,0,0,0,376
3,0,0,0,0,375
4,0,0,0,0,375
5,0,0,0,0,375
6,0,0,0,0,375
7,0,0,0,0,375
8,0,0,0,0,375
9,0,0,0,0,374
10,0,0,0,0,374
11,0,0,0,0,374
12,0,0,0,0,374
13,0,0,0,0,374
14,0,0,0,0,374
15,0,0,0,0,374
0,0,0,0,0,374
1,0,0,0,0,373
2,0,0,0,0,373
3,0,0,0,0,373
4,0,0,0,0,373
5,0,0,0,0,372
6,0,0,0,0,372
7,0,0,0,0,372
8,0,0,0,0,372
9,0,0,0,0,372
10,0,0,0,0,372
11,0,0,0,0,371
12,0,0,0,0,371
13,0,0,0,0,371
14,0,0,0,0,371
15,0,0,0,0,371
0,0,0,0,0,371
1,0,0,0,0,370
2,0,0,0,0,370
3,0,0,0,0,370
4,0,0,0,0,370
5,0,0,0,0,370
6,0,0,0,0,370
7,0,0,0,0,370
8,0,0,0,0,369
9,0,0,0,0,369
10,0,0,0,0,369
11,0,0,0,0,369
12,0,0,0,0,392
13,0,0,0,0,430
14,0,0,0,0,462
15,0,0,0,0,488
0,0,0,0,0,510
1,0,0,0,0,528
2,0,0,0,0,543
3,0,0,0,0,556
4,0,0,0,0,566
5,0,0,0,0,575
6,0,0,0,0,582
7,0,0,0,0,587
8,0,0,0,0,595
9,0,0,0,0,602
10,0,0,0,0,607
11,0,0,0,0,612
12,0,0,0,0,615
13,0,0,0,0,618
14,0,0,0,0,621
15,0,0,0,0,623
0,0,0,0,0,624
1,0,0,0,0,625
2,0,0,0,0,627
3,0,0,0,0,628
4,0,0,0,0,628
5,0,0,0,0,630
6,0,0,0,0,630
7,0,0,0,0,631
8,0,0,0,0,632
9,0,0,0,0,632
10,0,0,0,0,632
11,0,0,0,0,633
12,0,0,0,0,633
13,0,0,0,0,633
14,0,0,0,0,639
15,0,0,0,0,645
0,0,0,0,0,650
1,0,0,0,0,654
2,0,0,0,0,657
3,0,0,0,0,659
4,0,0,0,0,661
5,0,0,0,0,663
6,0,0,0,0,664
7,0,0,0,0,665
8,0,0,0,0,667
9,0,0,0,0,667
10,0,0,0,0,668
11,0,0,0,0,668
12,0,0,0,0,668
13,0,0,0,0,669
14,0,0,0,0,670
15,0,0,0,0,671
0,0,0,0,0,671
1,0,0,0,0,673
2,0,0,0,0,674
3,0,0,0,0,675
4,0,0,0,0,676
5,0,0,0,0,676
6,0,0,0,0,678
7,0,0,0,0,678
8,0,0,0,0,679
9,0,0,0,0,680
10,0,0,0,0,680
11,0,0,0,0,681
12,0,0,0,0,682
13,0,0,0,0,682
14,0,0,0,0,682
15,0,0,0,0,683
0,0,0,0,0,683
1,0,0,0,0,683
2,0,0,0,0,684
3,0,0,0,0,684
4,0,0,0,0,684
5,0,0,0,0,685
6,0,0,0,0,685
7,0,0,0,0,686
8,0,0,0,0,686
9,0,0,0,0,687
10,0,0,0,0,688
11,0,0,0,0,688
12,0,0,0,0,689
13,0,0,0,0,690
14,0,0,0,0,691
15,0,0,0,0,691
0,0,0,0,0,692
1,0,0,0,0,693
2,0,0,0,0,694
3,0,0,0,0,696
4,0,0,0,0,697
5,0,0,0,0,698
6,0,0,0,0,699
7,0,0,0,0,701
8,0,0,0,0,702
9,0,0,0,0,703
10,0,0,0,0,704
11,0,0,0,0,705
12,0,0,0,0,707
13,0,0,0,0,707
14,0,0,0,0,708
15,0,0,0,0,710
0,0,0,0,0,711
1,0,0,0,0,711
2,0,0,0,0,712
3,0,0,0,0,713
4,0,0,0,0,713
5,0,0,0,0,714
6,0,0,0,0,715
7,0,0,0,0,715
8,0,0,0,0,716
9,0,0,0,0,716
10,0,0,0,0,717
11,0,0,0,0,717
12,0,0,0,0,718
13,0,0,0,0,718
14,0,0,0,0,718
15,0,0,0,0,718
0,0,0,0,0,718
1,0,0,0,0,718
2,0,0,0,0,719
3,0,0,0,0,719
4,0,0,0,0,719
5,0,0,0,0,719
6,0,0,0,0,720
7,0,0,0,0,720
8,0,0,0,0,720
9,0,0,0,0,721
10,0,0,0,0,721
11,0,0,0,0,722
12,0,0,0,0,723
13,0,0,0,0,723
14,0,0,0,0,724
15,0,0,0,0,725
0,0,0,0,0,725
1,0,0,0,0,726
2,0,0,0,0,727
3,0,0,0,0,727
4,0,0,0,0,728
5,0,0,0,0,728
6,0,0,0,0,728
7,0,0,0,0,728
8,0,0,0,0,728
9,0,0,0,0,728
10,0,0,0,0,728
11,0,0,0,0,728
12,0,0,0,0,728
13,0,0,0,0,727
14,0,0,0,0,727
15,0,0,0,0,728
0,0,0,0,0,728
1,0,0,0,0,729
2,0,0,0,0,730
3,0,0,0,0,730
4,0,0,0,0,731
5,0,0,0,0,731
6,0,0,0,0,732
7,0,0,0,0,733
8,0,0,0,0,734
9,0,0,0,0,735
10,0,0,0,0,736
11,0,0,0,0,737
12,0,0,0,0,737
13,0,0,0,0,738
14,0,0,0,0,739
15,0,0,0,0,739
0,0,0,0,0,739
1,0,0,0,0,739
2,0,0,0,0,739
3,0,0,0,0,739
4,0,0,0,0,740
5,0,0,0,0,740
6,0,0,0,0,741
7,0,0,0,0,742
8,0,0,0,0,741
9,0,0,0,0,705
10,0,0,0,0,649
11,0,0,0,0,604
12,0,0,0,0,567
13,0,0,0,0,535
14,0,0,0,0,509
15,0,0,0,0,487
0,0,0,0,0,470
1,0,0,0,0,455
2,0,0,0,0,442
3,0,0,0,0,432
4,0,0,0,0,423
5,0,0,0,0,415
6,0,0,0,0,409
7,0,0,0,0,404
8,0,0,0,0,400
9,0,0,0,0,396
10,0,0,0,0,393
11,0,0,0,0,391
12,0,0,0,0,389
13,0,0,0,0,387
14,0,0,0,0,385
15,0,0,0,0,384
0,0,0,0,0,383
1,0,0,0,0,382
2,0,0,0,0,382
3,0,0,0,0,381
4,0,0,0,0,381
5,0,0,0,0,380
6,0,0,0,0,380
7,0,0,0,0,380
8,0,0,0,0,380
9,0,0,0,0,380
10,0,0,0,0,380
11,0,0,0,0,380
12,0,0,0,0,380
13,0,0,0,0,379
14,0,0,0,0,380
15,0,0,0,0,380
0,0,0,0,0,380
1,0,0,0,0,380
2,0,0,0,0,380
3,0,0,0,0,380
4,0,0,0,0,380
5,0,0,0,0,380
6,0,0,0,0,380
7,0,0,0,0,380
8,0,0,0,0,380
9,0,0,0,0,380
10,0,0,0,0,380
11,0,0,0,0,380
12,0,0,0,0,380
13,0,0,0,0,380
14,0,0,0,0,380
15,0,0,0,0,380
0,0,0,0,0,380
1,0,0,0,0,380
2,0,0,0,0,380
3,0,0,0,0,380
4,0,0,0,0,380
5,0,0,0,0,380
6,0,0,0,0,380
7,0,0,0,0,380
8,0,0,0,0,380
9,0,0,0,0,381
10,0,0,0,0,381
11,0,0,0,0,381
12,0,0,0,0,381
13,0,0,0,0,381
14,0,0,0,0,382
15,0,0,0,0,382
0,0,0,0,0,382
1,0,0,0,0,382
2,0,0,0,0,382
3,0,0,0,0,383
4,0,0,0,0,383
5,0,0,0,0,383
6,0,0,0,0,383
7,0,0,0,0,383
8,0,0,0,0,384
9,0,0,0,0,384
10,0,0,0,0,384
11,0,0,0,0,384
12,0,0,0,0,384
13,0,0,0,0,384
14,0,0,0,0,385
15,0,0,0,0,385
0,0,0,0,0,385
1,0,0,0,0,385
2,0,0,0,0,386
3,0,0,0,0,386
4,0,0,0,0,386
5,0,0,0,0,386
6,0,0,0,0,387
7,0,0,0,0,387
8,0,0,0,0,387
9,0,0,0,0,387
10,0,0,0,0,387
11,0,0,0,0,387
12,0,0,0,0,387
13,0,0,0,0,387
14,0,0,0,0,388
15,0,0,0,0,388
0,0,0,0,0,388
1,0,0,0,0,388
2,0,0,0,0,389
3,0,0,0,0,389
4,0,0,0,0,389
5,0,0,0,0,389
6,0,0,0,0,390
7,0,0,0,0,390
8,0,0,0,0,390
9,0,0,0,0,390
10,0,0,0,0,390
11,0,0,0,0,391
12,0,0,0,0,391
13,0,0,0,0,391
14,0,0,0,0,419
15,0,0,0,0,457
0,0,0,0,0,488
1,0,0,0,0,513
2,0,0,0,0,534
3,0,0,0,0,551
4,0,0,0,0,565
5,0,0,0,0,576
6,0,0,0,0,585
7,0,0,0,0,593
8,0,0,0,0,601
9,0,0,0,0,608
10,0,0,0,0,613
11,0,0,0,0,618
12,0,0,0,0,623
13,0,0,0,0,628
14,0,0,0,0,634
15,0,0,0,0,639
0,0,0,0,0,644
1,0,0,0,0,649
2,0,0,0,0,654
3,0,0,0,0,658
4,0,0,0,0,663
5,0,0,0,0,668
6,0,0,0,0,672
7,0,0,0,0,676
8,0,0,0,0,678
9,0,0,0,0,680
10,0,0,0,0,682
11,0,0,0,0,683
12,0,0,0,0,684
13,0,0,0,0,684
14,0,0,0,0,685
15,0,0,0,0,686
0,0,0,0,0,686
1,0,0,0,0,686
2,0,0,0,0,687
3,0,0,0,0,687
4,0,0,0,0,687
5,0,0,0,0,687
6,0,0,0,0,687
7,0,0,0,0,687
8,0,0,0,0,687
9,0,0,0,0,687
10,0,0,0,0,688
11,0,0,0,0,688
12,0,0,0,0,688
13,0,0,0,0,688
14,0,0,0,0,688
15,0,0,0,0,688
0,0,0,0,0,688
1,0,0,0,0,688
2,0,0,0,0,688
3,0,0,0,0,688
4,0,0,0,0,689
5,0,0,0,0,689
6,0,0,0,0,689
7,0,0,0,0,690
8,0,0,0,0,690
9,0,0,0,0,691
10,0,0,0,0,691
11,0,0,0,0,691
12,0,0,0,0,691
13,0,0,0,0,692
14,0,0,0,0,692
15,0,0,0,0,692
0,0,0,0,0,693
1,0,0,0,0,693
2,0,0,0,0,694
3,0,0,0,0,694
4,0,0,0,0,694
5,0,0,0,0,694
6,0,0,0,0,694
7,0,0,0,0,695
8,0,0,0,0,695
9,0,0,0,0,695
10,0,0,0,0,695
11,0,0,0,0,695
12,0,0,0,0,695
13,0,0,0,0,695
14,0,0,0,0,695
15,0,0,0,0,695
0,0,0,0,0,695
1,0,0,0,0,695
2,0,0,0,0,695
3,0,0,0,0,695
4,0,0,0,0,695
5,0,0,0,0,694
6,0,0,0,0,694
7,0,0,0,0,694
8,0,0,0,0,694
9,0,0,0,0,694
10,0,0,0,0,694
11,0,0,0,0,694
12,0,0,0,0,695
13,0,0,0,0,695
14,0,0,0,0,695
15,0,0,0,0,695
0,0,0,0,0,694
1,0,0,0,0,694
2,0,0,0,0,694
3,0,0,0,0,694
4,0,0,0,0,695
5,0,0,0,0,695
6,0,0,0,0,695
7,0,0,0,0,695
8,0,0,0,0,696
9,0,0,0,0,696
10,0,0,0,0,697
11,0,0,0,0,698
12,0,0,0,0,699
13,0,0,0,0,700
14,0,0,0,0,700
15,0,0,0,0,700
0,0,0,0,0,694
1,0,0,0,0,652
2,0,0,0,0,608
3,0,0,0,0,572
4,0,0,0,0,542
5,0,0,0,0,517
6,0,0,0,0,497
7,0,0,0,0,480
8,0,0,0,0,465
9,0,0,0,0,454
10,0,0,0,0,444
11,0,0,0,0,436
12,0,0,0,0,429
13,0,0,0,0,423
14,0,0,0,0,418
15,0,0,0,0,415
0,0,0,0,0,411
1,0,0,0,0,408
2,0,0,0,0,406
3,0,0,0,0,404
4,0,0,0,0,403
5,0,0,0,0,401
6,0,0,0,0,400
7,0,0,0,0,399
8,0,0,0,0,398
9,0,0,0,0,397
10,0,0,0,0,397
11,0,0,0,0,396
12,0,0,0,0,396
13,0,0,0,0,395
14,0,0,0,0,395
15,0,0,0,0,395
0,0,0,0,0,395
1,0,0,0,0,394
2,0,0,0,0,394
3,0,0,0,0,394
4,0,0,0,0,393
5,0,0,0,0,393
6,0,0,0,0,393
7,0,0,0,0,393
8,0,0,0,0,392
9,0,0,0,0,392
10,0,0,0,0,392
11,0,0,0,0,392
12,0,0,0,0,392
13,0,0,0,0,392
14,0,0,0,0,392
15,0,0,0,0,392
0,0,0,0,0,391
1,0,0,0,0,391
2,0,0,0,0,391
3,0,0,0,0,391
4,0,0,0,0,391
5,0,0,0,0,391
6,0,0,0,0,391
7,0,0,0,0,391
8,0,0,0,0,391
9,0,0,0,0,391
10,0,0,0,0,391
11,0,0,0,0,390
12,0,0,0,0,390
13,0,0,0,0,390
14,0,0,0,0,390
15,0,0,0,0,390
0,0,0,0,0,390
1,0,0,0,0,389
2,0,0,0,0,389
3,0,0,0,0,389
4,0,0,0,0,389
5,0,0,0,0,389
6,0,0,0,0,388
7,0,0,0,0,388
8,0,0,0,0,388
9,0,0,0,0,388
10,0,0,0,0,388
11,0,0,0,0,388
12,0,0,0,0,387
13,0,0,0,0,387
14,0,0,0,0,387
15,0,0,0,0,387
0,0,0,0,0,387
1,0,0,0,0,386
2,0,0,0,0,386
3,0,0,0,0,386
4,0,0,0,0,386
5,0,0,0,0,386
6,0,0,0,0,385
7,0,0,0,0,385
8,0,0,0,0,385
9,0,0,0,0,385
10,0,0,0,0,385
11,0,0,0,0,386
12,0,0,0,0,390
13,0,0,0,0,396
14,0,0,0,0,403
15,0,0,0,0,409
0,0,0,0,0,416
1,0,0,0,0,426
2,0,0,0,0,435
3,0,0,0,0,443
4,0,0,0,0,449
5,0,0,0,0,456
6,0,0,0,0,461
7,0,0,0,0,465
8,0,0,0,0,468
9,0,0,0,0,471
10,0,0,0,0,473
11,0,0,0,0,475
12,0,0,0,0,476
13,0,0,0,0,476
14,0,0,0,0,477
15,0,0,0,0,477
0,0,0,0,0,477
1,0,0,0,0,478
2,0,0,0,0,478
3,0,0,0,0,478
4,0,0,0,0,478
5,0,0,0,0,478
6,0,0,0,0,478
7,0,0,0,0,478
8,0,0,0,0,478
9,0,0,0,0,478
10,0,0,0,0,479
11,0,0,0,0,479
12,0,0,0,0,479
13,0,0,0,0,480
14,0,0,0,0,480
15,0,0,0,0,480
0,0,0,0,0,480
1,0,0,0,0,480
2,0,0,0,0,480
3,0,0,0,0,480
4,0,0,0,0,480
5,0,0,0,0,480
6,0,0,0,0,480
7,0,0,0,0,481
8,0,0,0,0,481
9,0,0,0,0,481
10,0,0,0,0,481
11,0,0,0,0,482
12,0,0,0,0,482
13,0,0,0,0,482
14,0,0,0,0,482
15,0,0,0,0,483
0,0,0,0,0,483
1,0,0,0,0,483
2,0,0,0,0,483
3,0,0,0,0,484
4,0,0,0,0,484
5,0,0,0,0,484
6,0,0,0,0,484
7,0,0,0,0,485
8,0,0,0,0,485
9,0,0,0,0,486
10,0,0,0,0,486
11,0,0,0,0,486
12,0,0,0,0,487
13,0,0,0,0,487
14,0,0,0,0,487
15,0,0,0,0,488
0,0,0,0,0,488
1,0,0,0,0,489
2,0,0,0,0,489
3,0,0,0,0,489
4,0,0,0,0,490
5,0,0,0,0,490
6,0,0,0,0,491
7,0,0,0,0,491
8,0,0,0,0,492
9,0,0,0,0,492
10,0,0,0,0,492
11,0,0,0,0,492
12,0,0,0,0,493
13,0,0,0,0,493
14,0,0,0,0,494
15,0,0,0,0,495
0,0,0,0,0,495
1,0,0,0,0,496
2,0,0,0,0,496
3,0,0,0,0,497
4,0,0,0,0,498
5,0,0,0,0,499
6,0,0,0,0,499
7,0,0,0,0,500
8,0,0,0,0,500
9,0,0,0,0,501
10,0,0,0,0,501
11,0,0,0,0,502
12,0,0,0,0,502
13,0,0,0,0,501
14,0,0,0,0,500
15,0,0,0,0,498
0,0,0,0,0,491
1,0,0,0,0,482
2,0,0,0,0,469
3,0,0,0,0,458
4,0,0,0,0,449
5,0,0,0,0,441
6,0,0,0,0,435
7,0,0,0,0,431
8,0,0,0,0,426
9,0,0,0,0,423
10,0,0,0,0,420
11,0,0,0,0,418
12,0,0,0,0,416
13,0,0,0,0,415
14,0,0,0,0,414
15,0,0,0,0,413
0,0,0,0,0,412
1,0,0,0,0,412
2,0,0,0,0,412
3,0,0,0,0,412
4,0,0,0,0,411
5,0,0,0,0,411
6,0,0,0,0,411
7,0,0,0,0,411
8,0,0,0,0,411
9,0,0,0,0,411
10,0,0,0,0,412
11,0,0,0,0,412
12,0,0,0,0,412
13,0,0,0,0,413
14,0,0,0,0,413
15,0,0,0,0,414
0,0,0,0,0,414
1,0,0,0,0,414
2,0,0,0,0,415
3,0,0,0,0,415
4,0,0,0,0,415
5,0,0,0,0,415
6,0,0,0,0,415
7,0,0,0,0,415
8,0,0,0,0,416
9,0,0,0,0,416
10,0,0,0,0,416
11,0,0,0,0,416
12,0,0,0,0,417
13,0,0,0,0,417
14,0,0,0,0,417
15,0,0,0,0,417
0,0,0,0,0,417
1,0,0,0,0,417
2,0,0,0,0,418
3,0,0,0,0,418
4,0,0,0,0,418
5,0,0,0,0,418
6,0,0,0,0,419
7,0,0,0,0,419
8,0,0,0,0,419
9,0,0,0,0,419
10,0,0,0,0,419
11,0,0,0,0,420
12,0,0,0,0,420
13,0,0,0,0,420
14,0,0,0,0,420
15,0,0,0,0,420
0,0,0,0,0,420
1,0,0,0,0,420
2,0,0,0,0,421
3,0,0,0,0,421
4,0,0,0,0,421
5,0,0,0,0,422
6,0,0,0,0,422
7,0,0,0,0,422
8,0,0,0,0,422
9,0,0,0,0,422
10,0,0,0,0,422
11,0,0,0,0,423
12,0,0,0,0,423
13,0,0,0,0,423
14,0,0,0,0,423
15,0,0,0,0,423
0,0,0,0,0,423
1,0,0,0,0,423
2,0,0,0,0,423
3,0,0,0,0,423
4,0,0,0,0,423
5,0,0,0,0,424
6,0,0,0,0,424
7,0,0,0,0,424
8,0,0,0,0,424
9,0,0,0,0,424
10,0,0,0,0,425
11,0,0,0,0,425
12,0,0,0,0,425
13,0,0,0,0,425
14,0,0,0,0,425
15,0,0,0,0,425
0,0,0,0,0,425
1,0,0,0,0,425
2,0,0,0,0,425
3,0,0,0,0,426
4,0,0,0,0,426
5,0,0,0,0,425
6,0,0,0,0,426
7,0,0,0,0,426
8,0,0,0,0,426
9,0,0,0,0,426
10,0,0,0,0,426
11,0,0,0,0,426
12,0,0,0,0,426
13,0,0,0,0,426
14,0,0,0,0,426
15,0,0,0,0,427
0,0,0,0,0,426
1,0,0,0,0,426
2,0,0,0,0,426
3,0,0,0,0,427
4,0,0,0,0,427
5,0,0,0,0,427
6,0,0,0,0,427
7,0,0,0,0,427
8,0,0,0,0,427
9,0,0,0,0,427
10,0,0,0,0,427
11,0,0,0,0,427
12,0,0,0,0,427
13,0,0,0,0,427
14,0,0,0,0,427
15,0,0,0,0,427
0,0,0,0,0,427
1,0,0,0,0,427
2,0,0,0,0,427
3,0,0,0,0,427
4,0,0,0,0,427
5,0,0,0,0,427
6,0,0,0,0,426
7,0,0,0,0,427
8,0,0,0,0,426
9,0,0,0,0,426
10,0,0,0,0,426
11,0,0,0,0,426
12,0,0,0,0,426
13,0,0,0,0,426
14,0,0,0,0,426
15,0,0,0,0,426
0,0,0,0,0,426
1,0,0,0,0,426
2,0,0,0,0,426
3,0,0,0,0,426
4,0,0,0,0,426
5,0,0,0,0,426
6,0,0,0,0,426
7,0,0,0,0,426
8,0,0,0,0,425
9,0,0,0,0,425
10,0,0,0,0,425
11,0,0,0,0,425
12,0,0,0,0,427
13,0,0,0,0,426
14,0,0,0,0,426
15,0,0,0,0,427
0,0,0,0,0,427
1,0,0,0,0,427
2,0,0,0,0,427
3,0,0,0,0,428
4,0,0,0,0,428
5,0,0,0,0,428
6,0,0,0,0,428
7,0,0,0,0,428
8,0,0,0,0,428
9,0,0,0,0,427
10,0,0,0,0,427
11,0,0,0,0,427
12,0,0,0,0,427
13,0,0,0,0,426
14,0,0,0,0,426
15,0,0,0,0,425
0,0,0,0,0,425
1,0,0,0,0,425
2,0,0,0,0,425
3,0,0,0,0,424
4,0,0,0,0,424
5,0,0,0,0,423
6,0,0,0,0,423
7,0,0,0,0,423
8,0,0,0,0,423
9,0,0,0,0,423
10,0,0,0,0,423
11,0,0,0,0,423
12,0,0,0,0,423
13,0,0,0,0,422
14,0,0,0,0,422
15,0,0,0,0,422
0,0,0,0,0,422
1,0,0,0,0,421
2,0,0,0,0,421
3,0,0,0,0,421
4,0,0,0,0,421
5,0,0,0,0,420
6,0,0,0,0,420
7,0,0,0,0,420
8,0,0,0,0,420
9,0,0,0,0,420
10,0,0,0,0,420
11,0,0,0,0,420
12,0,0,0,0,420
13,0,0,0,0,419
14,0,0,0,0,419
15,0,0,0,0,419
0,0,0,0,0,419
1,0,0,0,0,419
2,0,0,0,0,419
3,0,0,0,0,419
4,0,0,0,0,419
5,0,0,0,0,419
6,0,0,0,0,419
7,0,0,0,0,419
8,0,0,0,0,419
9,0,0,0,0,418
10,0,0,0,0,418
11,0,0,0,0,418
12,0,0,0,0,418
13,0,0,0,0,418
14,0,0,0,0,418
15,0,0,0,0,418
0,0,0,0,0,418
1,0,0,0,0,417
2,0,0,0,0,417
3,0,0,0,0,417
4,0,0,0,0,417
5,0,0,0,0,417
6,0,0,0,0,417
7,0,0,0,0,417
8,0,0,0,0,417
9,0,0,0,0,417
10,0,0,0,0,417
11,0,0,0,0,416
12,0,0,0,0,416
13,0,0,0,0,416
14,0,0,0,0,416
15,0,0,0,0,416
0,0,0,0,0,416
1,0,0,0,0,416
2,0,0,0,0,416
3,0,0,0,0,415
4,0,0,0,0,415
5,0,0,0,0,415
6,0,0,0,0,415
7,0,0,0,0,415
8,0,0,0,0,415
9,0,0,0,0,415
10,0,0,0,0,415
11,0,0,0,0,415
12,0,0,0,0,415
13,0,0,0,0,415
14,0,0,0,0,415
15,0,0,0,0,415
0,0,0,0,0,415
1,0,0,0,0,414
2,0,0,0,0,414
3,0,0,0,0,414
4,0,0,0,0,414
5,0,0,0,0,414
6,0,0,0,0,414
7,0,0,0,0,414
8,0,0,0,0,414
9,0,0,0,0,414
10,0,0,0,0,414
11,0,0,0,0,414
12,0,0,0,0,414
13,0,0,0,0,414
14,0,0,0,0,414
15,0,0,0,0,414
0,0,0,0,0,415
1,0,0,0,0,417
2,0,0,0,0,419
3,0,0,0,0,419
4,0,0,0,0,417
5,0,0,0,0,417
6,0,0,0,0,416
7,0,0,0,0,415
8,0,0,0,0,415
9,0,0,0,0,414
10,0,0,0,0,414
11,0,0,0,0,414
12,0,0,0,0,413
13,0,0,0,0,413
14,0,0,0,0,412
15,0,0,0,0,412
0,0,0,0,0,412
1,0,0,0,0,412
2,0,0,0,0,412
3,0,0,0,0,412
4,0,0,0,0,411
5,0,0,0,0,411
6,0,0,0,0,411
7,0,0,0,0,411
8,0,0,0,0,411
9,0,0,0,0,411
10,0,0,0,0,411
11,0,0,0,0,411
12,0,0,0,0,411
13,0,0,0,0,411
14,0,0,0,0,411
15,0,0,0,0,411
0,0,0,0,0,411
1,0,0,0,0,411
2,0,0,0,0,411
3,0,0,0,0,411
4,0,0,0,0,411
5,0,0,0,0,411
6,0,0,0,0,410
7,0,0,0,0,410
8,0,0,0,0,410
9,0,0,0,0,410
10,0,0,0,0,410
11,0,0,0,0,409
12,0,0,0,0,409
13,0,0,0,0,409
14,0,0,0,0,409
15,0,0,0,0,409
0,0,0,0,0,409
1,0,0,0,0,409
2,0,0,0,0,409
3,0,0,0,0,409
4,0,0,0,0,409
5,0,0,0,0,409
6,0,0,0,0,409
7,0,0,0,0,409
8,0,0,0,0,409
9,0,0,0,0,409
10,0,0,0,0,409
11,0,0,0,0,409
12,0,0,0,0,409
13,0,0,0,0,409
14,0,0,0,0,409
15,0,0,0,0,409
0,0,0,0,0,409
1,0,0,0,0,409
2,0,0,0,0,409
3,0,0,0,0,409
4,0,0,0,0,409
5,0,0,0,0,409
6,0,0,0,0,409
7,0,0,0,0,409
8,0,0,0,0,409
9,0,0,0,0,409
10,0,0,0,0,409
11,0,0,0,0,409
12,0,0,0,0,409
13,0,0,0,0,409
14,0,0,0,0,409
15,0,0,0,0,409
0,0,0,0,0,409
1,0,0,0,0,409
2,0,0,0,0,409
3,0,0,0,0,409
4,0,0,0,0,409
5,0,0,0,0,409
6,0,0,0,0,409
7,0,0,0,0,409
8,0,0,0,0,409
9,0,0,0,0,408
10,0,0,0,0,408
11,0,0,0,0,408
12,0,0,0,0,408
13,0,0,0,0,408
14,0,0,0,0,408
15,0,0,0,0,408
0,0,0,0,0,409
1,0,0,0,0,408
2,0,0,0,0,408
3,0,0,0,0,408
4,0,0,0,0,408
5,0,0,0,0,408
6,0,0,0,0,408
7,0,0,0,0,408
8,0,0,0,0,408
9,0,0,0,0,408
10,0,0,0,0,408
11,0,0,0,0,408
12,0,0,0,0,408
13,0,0,0,0,408
14,0,0,0,0,408
15,0,0,0,0,408
0,0,0,0,0,408
1,0,0,0,0,408
2,0,0,0,0,408
3,0,0,0,0,408
4,0,0,0,0,408
5,0,0,0,0,408
6,0,0,0,0,408
7,0,0,0,0,408
8,0,0,0,0,409
9,0,0,0,0,408
10,0,0,0,0,408
11,0,0,0,0,408
12,0,0,0,0,409
13,0,0,0,0,408
14,0,0,0,0,409
15,0,0,0,0,409
0,0,0,0,0,409
1,0,0,0,0,409
2,0,0,0,0,409
3,0,0,0,0,409
4,0,0,0,0,409
5,0,0,0,0,408
6,0,0,0,0,409
7,0,0,0,0,409
8,0,0,0,0,408
9,0,0,0,0,408
10,0,0,0,0,409
11,0,0,0,0,409
12,0,0,0,0,409
13,0,0,0,0,409
14,0,0,0,0,409
15,0,0,0,0,409
0,0,0,0,0,409
1,0,0,0,0,409
2,0,0,0,0,409
3,0,0,0,0,409
4,0,0,0,0,409
5,0,0,0,0,409
6,0,0,0,0,409
7,0,0,0,0,409
8,0,0,0,0,409
9,0,0,0,0,409
10,0,0,0,0,409
11,0,0,0,0,409
12,0,0,0,0,409
13,0,0,0,0,409
14,0,0,0,0,409
15,0,0,0,0,409
0,0,0,0,0,409
1,0,0,0,0,408
2,0,0,0,0,408
3,0,0,0,0,408
4,0,0,0,0,408
5,0,0,0,0,408
6,0,0,0,0,408
7,0,0,0,0,408
8,0,0,0,0,408
9,0,0,0,0,408
10,0,0,0,0,408
11,0,0,0,0,408
12,0,0,0,0,408
13,0,0,0,0,408
14,0,0,0,0,408
15,0,0,0,0,408
0,0,0,0,0,408
1,0,0,0,0,408
2,0,0,0,0,408
3,0,0,0,0,408
4,0,0,0,0,408
5,0,0,0,0,408
6,0,0,0,0,408
7,0,0,0,0,408
8,0,0,0,0,408
9,0,0,0,0,408
10,0,0,0,0,408
11,0,0,0,0,408
12,0,0,0,0,408
13,0,0,0,0,408
14,0,0,0,0,408
15,0,0,0,0,408
0,0,0,0,0,408
1,0,0,0,0,408
2,0,0,0,0,408
3,0,0,0,0,408
4,0,0,0,0,408
5,0,0,0,0,408
6,0,0,0,0,408
7,0,0,0,0,408
8,0,0,0,0,408
9,0,0,0,0,408
10,0,0,0,0,408
11,0,0,0,0,409
12,0,0,0,0,408
13,0,0,0,0,408
14,0,0,0,0,408
15,0,0,0,0,409
0,0,0,0,0,409
1,0,0,0,0,409
2,0,0,0,0,409
3,0,0,0,0,409
4,0,0,0,0,409
5,0,0,0,0,409
6,0,0,0,0,409
7,0,0,0,0,409
8,0,0,0,0,409
9,0,0,0,0,409
10,0,0,0,0,409
11,0,0,0,0,409
12,0,0,0,0,409
13,0,0,0,0,409
14,0,0,0,0,409
15,0,0,0,0,409
0,0,0,0,0,409
1,0,0,0,0,409
2,0,0,0,0,409
3,0,0,0,0,409
4,0,0,0,0,409
5,0,0,0,0,409
6,0,0,0,0,409
7,0,0,0,0,410
8,0,0,0,0,409
9,0,0,0,0,409
10,0,0,0,0,410
11,0,0,0,0,410
12,0,0,0,0,410
13,0,0,0,0,410
14,0,0,0,0,410
15,0,0,0,0,410
0,0,0,0,0,410
1,0,0,0,0,410
2,0,0,0,0,410
3,0,0,0,0,410
4,0,0,0,0,410
5,0,0,0,0,410
6,0,0,0,0,410
7,0,0,0,0,410
8,0,0,0,0,410
9,0,0,0,0,410
10,0,0,0,0,410
11,0,0,0,0,410
12,0,0,0,0,410
13,0,0,0,0,410
14,0,0,0,0,410
15,0,0,0,0,411
0,0,0,0,0,410
1,0,0,0,0,410
2,0,0,0,0,410
3,0,0,0,0,411
4,0,0,0,0,410
5,0,0,0,0,410
6,0,0,0,0,410
7,0,0,0,0,410
8,0,0,0,0,410
9,0,0,0,0,410
10,0,0,0,0,410
11,0,0,0,0,411
12,0,0,0,0,410
13,0,0,0,0,410
14,0,0,0,0,410
15,0,0,0,0,411
0,0,0,0,0,410
1,0,0,0,0,410
2,0,0,0,0,410
3,0,0,0,0,411
4,0,0,0,0,410
5,0,0,0,0,410
6,0,0,0,0,410
7,0,0,0,0,411
8,0,0,0,0,410
9,0,0,0,0,411
10,0,0,0,0,411
11,0,0,0,0,411
12,0,0,0,0,411
13,0,0,0,0,411
14,0,0,0,0,411
15,0,0,0,0,411
0,0,0,0,0,411
1,0,0,0,0,411
2,0,0,0,0,411
3,0,0,0,0,411
4,0,0,0,0,411
5,0,0,0,0,411
6,0,0,0,0,410
7,0,0,0,0,411
8,0,0,0,0,411
9,0,0,0,0,410
10,0,0,0,0,410
11,0,0,0,0,411
12,0,0,0,0,410
13,0,0,0,0,410
14,0,0,0,0,410
15,0,0,0,0,410
0,0,0,0,0,410
1,0,0,0,0,410
2,0,0,0,0,410
3,0,0,0,0,410
4,0,0,0,0,410
5,0,0,0,0,410
6,0,0,0,0,410
7,0,0,0,0,410
8,0,0,0,0,410
9,0,0,0,0,410
10,0,0,0,0,410
11,0,0,0,0,410
12,0,0,0,0,410
13,0,0,0,0,410
14,0,0,0,0,410
15,0,0,0,0,410
0,0,0,0,0,410
1,0,0,0,0,410
2,0,0,0,0,410
3,0,0,0,0,410
4,0,0,0,0,410
5,0,0,0,0,410
6,0,0,0,0,410
7,0,0,0,0,410
8,0,0,0,0,410
9,0,0,0,0,410
10,0,0,0,0,410
11,0,0,0,0,410
12,0,0,0,0,410
13,0,0,0,0,410
14,0,0,0,0,410
15,0,0,0,0,410
0,0,0,0,0,410
1,0,0,0,0,410
2,0,0,0,0,410
3,0,0,0,0,410
4,0,0,0,0,410
5,0,0,0,0,410
6,0,0,0,0,410
7,0,0,0,0,410
8,0,0,0,0,410
9,0,0,0,0,410
10,0,0,0,0,410
11,0,0,0,0,410
12,0,0,0,0,410
13,0,0,0,0,410
14,0,0,0,0,410
15,0,0,0,0,410
0,0,0,0,0,409
1,0,0,0,0,410
2,0,0,0,0,409
3,0,0,0,0,410
4,0,0,0,0,409
5,0,0,0,0,409
6,0,0,0,0,409
7,0,0,0,0,409
8,0,0,0,0,409
9,0,0,0,0,409
10,0,0,0,0,409
11,0,0,0,0,409
12,0,0,0,0,409
13,0,0,0,0,409
14,0,0,0,0,409
15,0,0,0,0,409
0,0,0,0,0,409
1,0,0,0,0,409
2,0,0,0,0,409
3,0,0,0,0,409
4,0,0,0,0,409
5,0,0,0,0,409
6,0,0,0,0,409
7,0,0,0,0,409
8,0,0,0,0,409
9,0,0,0,0,409
10,0,0,0,0,409
11,0,0,0,0,409
12,0,0,0,0,409
13,0,0,0,0,409
14,0,0,0,0,409
15,0,0,0,0,409
0,0,0,0,0,409
1,0,0,0,0,409
2,0,0,0,0,409
3,0,0,0,0,409
4,0,0,0,0,409
5,0,0,0,0,409
6,0,0,0,0,409
7,0,0,0,0,409
8,0,0,0,0,409
9,0,0,0,0,408
10,0,0,0,0,408
11,0,0,0,0,408
12,0,0,0,0,408
13,0,0,0,0,408
14,0,0,0,0,408
15,0,0,0,0,408
0,0,0,0,0,408
1,0,0,0,0,408
2,0,0,0,0,408
3,0,0,0,0,408
4,0,0,0,0,408
5,0,0,0,0,408
6,0,0,0,0,408
7,0,0,0,0,408
8,0,0,0,0,408
9,0,0,0,0,408
10,0,0,0,0,408
11,0,0,0,0,408
12,0,0,0,0,407
13,0,0,0,0,407
14,0,0,0,0,407
15,0,0,0,0,407
0,0,0,0,0,407
1,0,0,0,0,407
2,0,0,0,0,407
3,0,0,0,0,407
4,0,0,0,0,407
5,0,0,0,0,407
6,0,0,0,0,407
7,0,0,0,0,407
8,0,0,0,0,407
9,0,0,0,0,407
10,0,0,0,0,407
