intervalos,canal1,canal2,canal3,canal4,canal5
0,0,0,0,0,208
1,0,0,0,0,208
2,0,0,0,0,208
3,0,0,0,0,208
4,0,0,0,0,208
5,0,0,0,0,208
6,0,0,0,0,209
7,0,0,0,0,209
8,0,0,0,0,209
9,0,0,0,0,209
10,0,0,0,0,209
11,0,0,0,0,209
12,0,0,0,0,209
13,0,0,0,0,209
14,0,0,0,0,209
15,0,0,0,0,209
0,0,0,0,0,210
1,0,0,0,0,210
2,0,0,0,0,210
3,0,0,0,0,210
4,0,0,0,0,210
5,0,0,0,0,210
6,0,0,0,0,210
7,0,0,0,0,210
8,0,0,0,0,211
9,0,0,0,0,211
10,0,0,0,0,211
11,0,0,0,0,211
12,0,0,0,0,211
13,0,0,0,0,211
14,0,0,0,0,211
15,0,0,0,0,211
0,0,0,0,0,211
1,0,0,0,0,211
2,0,0,0,0,211
3,0,0,0,0,211
4,0,0,0,0,212
5,0,0,0,0,212
6,0,0,0,0,212
7,0,0,0,0,212
8,0,0,0,0,212
9,0,0,0,0,212
10,0,0,0,0,212
11,0,0,0,0,212
12,0,0,0,0,212
13,0,0,0,0,212
14,0,0,0,0,213
15,0,0,0,0,213
0,0,0,0,0,213
1,0,0,0,0,213
2,0,0,0,0,213
3,0,0,0,0,213
4,0,0,0,0,213
5,0,0,0,0,213
6,0,0,0,0,213
7,0,0,0,0,213
8,0,0,0,0,213
9,0,0,0,0,213
10,0,0,0,0,213
11,0,0,0,0,214
12,0,0,0,0,214
13,0,0,0,0,214
14,0,0,0,0,214
15,0,0,0,0,214
0,0,0,0,0,214
1,0,0,0,0,214
2,0,0,0,0,214
3,0,0,0,0,214
4,0,0,0,0,214
5,0,0,0,0,214
6,0,0,0,0,214
7,0,0,0,0,214
8,0,0,0,0,214
9,0,0,0,0,214
10,0,0,0,0,214
11,0,0,0,0,214
12,0,0,0,0,214
13,0,0,0,0,214
14,0,0,0,0,214
15,0,0,0,0,215
0,0,0,0,0,215
1,0,0,0,0,215
2,0,0,0,0,215
3,0,0,0,0,215
4,0,0,0,0,215
5,0,0,0,0,215
6,0,0,0,0,215
7,0,0,0,0,215
8,0,0,0,0,215
9,0,0,0,0,215
10,0,0,0,0,215
11,0,0,0,0,215
12,0,0,0,0,215
13,0,0,0,0,215
14,0,0,0,0,215
15,0,0,0,0,215
0,0,0,0,0,215
1,0,0,0,0,215
2,0,0,0,0,215
3,0,0,0,0,215
4,0,0,0,0,215
5,0,0,0,0,215
6,0,0,0,0,215
7,0,0,0,0,215
8,0,0,0,0,215
9,0,0,0,0,215
10,0,0,0,0,215
11,0,0,0,0,215
12,0,0,0,0,215
13,0,0,0,0,215
14,0,0,0,0,215
15,0,0,0,0,215
0,0,0,0,0,215
1,0,0,0,0,215
2,0,0,0,0,215
3,0,0,0,0,215
4,0,0,0,0,215
5,0,0,0,0,215
6,0,0,0,0,215
7,0,0,0,0,215
8,0,0,0,0,215
9,0,0,0,0,215
10,0,0,0,0,215
11,0,0,0,0,215
12,0,0,0,0,215
13,0,0,0,0,215
14,0,0,0,0,215
15,0,0,0,0,215
0,0,0,0,0,215
1,0,0,0,0,215
2,0,0,0,0,215
3,0,0,0,0,215
4,0,0,0,0,215
5,0,0,0,0,215
6,0,0,0,0,215
7,0,0,0,0,215
8,0,0,0,0,215
9,0,0,0,0,215
10,0,0,0,0,215
11,0,0,0,0,215
12,0,0,0,0,215
13,0,0,0,0,215
14,0,0,0,0,215
15,0,0,0,0,215
0,0,0,0,0,215
1,0,0,0,0,215
2,0,0,0,0,215
3,0,0,0,0,215
4,0,0,0,0,215
5,0,0,0,0,215
6,0,0,0,0,215
7,0,0,0,0,215
8,0,0,0,0,215
9,0,0,0,0,215
10,0,0,0,0,215
11,0,0,0,0,215
12,0,0,0,0,215
13,0,0,0,0,215
14,0,0,0,0,215
15,0,0,0,0,215
0,0,0,0,0,215
1,0,0,0,0,215
2,0,0,0,0,215
3,0,0,0,0,215
4,0,0,0,0,215
5,0,0,0,0,215
6,0,0,0,0,215
7,0,0,0,0,215
8,0,0,0,0,215
9,0,0,0,0,215
10,0,0,0,0,215
11,0,0,0,0,215
12,0,0,0,0,215
13,0,0,0,0,215
14,0,0,0,0,215
15,0,0,0,0,215
0,0,0,0,0,215
1,0,0,0,0,215
2,0,0,0,0,215
3,0,0,0,0,215
4,0,0,0,0,215
5,0,0,0,0,215
6,0,0,0,0,215
7,0,0,0,0,215
8,0,0,0,0,215
9,0,0,0,0,215
10,0,0,0,0,215
11,0,0,0,0,215
12,0,0,0,0,215
13,0,0,0,0,215
14,0,0,0,0,214
15,0,0,0,0,214
0,0,0,0,0,214
1,0,0,0,0,214
2,0,0,0,0,214
3,0,0,0,0,214
4,0,0,0,0,214
5,0,0,0,0,214
6,0,0,0,0,214
7,0,0,0,0,214
8,0,0,0,0,214
9,0,0,0,0,214
10,0,0,0,0,214
11,0,0,0,0,214
12,0,0,0,0,214
13,0,0,0,0,214
14,0,0,0,0,214
15,0,0,0,0,214
0,0,0,0,0,214
1,0,0,0,0,214
2,0,0,0,0,214
3,0,0,0,0,214
4,0,0,0,0,214
5,0,0,0,0,214
6,0,0,0,0,214
7,0,0,0,0,214
8,0,0,0,0,214
9,0,0,0,0,214
10,0,0,0,0,214
11,0,0,0,0,214
12,0,0,0,0,214
13,0,0,0,0,214
14,0,0,0,0,213
15,0,0,0,0,214
0,0,0,0,0,214
1,0,0,0,0,213
2,0,0,0,0,213
3,0,0,0,0,213
4,0,0,0,0,213
5,0,0,0,0,213
6,0,0,0,0,213
7,0,0,0,0,213
8,0,0,0,0,213
9,0,0,0,0,213
10,0,0,0,0,213
11,0,0,0,0,213
12,0,0,0,0,213
13,0,0,0,0,213
14,0,0,0,0,213
15,0,0,0,0,213
0,0,0,0,0,213
1,0,0,0,0,213
2,0,0,0,0,213
3,0,0,0,0,213
4,0,0,0,0,213
5,0,0,0,0,212
6,0,0,0,0,212
7,0,0,0,0,212
8,0,0,0,0,212
9,0,0,0,0,212
10,0,0,0,0,212
11,0,0,0,0,212
12,0,0,0,0,212
13,0,0,0,0,212
14,0,0,0,0,212
15,0,0,0,0,212
0,0,0,0,0,212
1,0,0,0,0,212
2,0,0,0,0,212
3,0,0,0,0,212
4,0,0,0,0,212
5,0,0,0,0,212
6,0,0,0,0,212
7,0,0,0,0,212
8,0,0,0,0,212
9,0,0,0,0,212
10,0,0,0,0,212
11,0,0,0,0,212
12,0,0,0,0,212
13,0,0,0,0,212
14,0,0,0,0,211
15,0,0,0,0,211
0,0,0,0,0,211
1,0,0,0,0,211
2,0,0,0,0,211
3,0,0,0,0,211
4,0,0,0,0,211
5,0,0,0,0,211
6,0,0,0,0,211
7,0,0,0,0,211
8,0,0,0,0,211
9,0,0,0,0,211
10,0,0,0,0,211
11,0,0,0,0,211
12,0,0,0,0,211
13,0,0,0,0,211
14,0,0,0,0,211
15,0,0,0,0,211
0,0,0,0,0,211
1,0,0,0,0,211
2,0,0,0,0,211
3,0,0,0,0,211
4,0,0,0,0,211
5,0,0,0,0,211
6,0,0,0,0,211
7,0,0,0,0,211
8,0,0,0,0,211
9,0,0,0,0,210
10,0,0,0,0,210
11,0,0,0,0,210
12,0,0,0,0,210
13,0,0,0,0,210
14,0,0,0,0,210
15,0,0,0,0,210
0,0,0,0,0,210
1,0,0,0,0,210
2,0,0,0,0,210
3,0,0,0,0,210
4,0,0,0,0,210
5,0,0,0,0,210
6,0,0,0,0,210
7,0,0,0,0,210
8,0,0,0,0,210
9,0,0,0,0,210
10,0,0,0,0,209
11,0,0,0,0,209
12,0,0,0,0,209
13,0,0,0,0,209
14,0,0,0,0,208
15,0,0,0,0,208
0,0,0,0,0,208
1,0,0,0,0,208
2,0,0,0,0,209
3,0,0,0,0,209
4,0,0,0,0,209
5,0,0,0,0,209
6,0,0,0,0,209
7,0,0,0,0,209
8,0,0,0,0,209
9,0,0,0,0,209
10,0,0,0,0,209
11,0,0,0,0,209
12,0,0,0,0,209
13,0,0,0,0,210
14,0,0,0,0,210
15,0,0,0,0,210
0,0,0,0,0,210
1,0,0,0,0,210
2,0,0,0,0,210
3,0,0,0,0,210
4,0,0,0,0,210
5,0,0,0,0,210
6,0,0,0,0,210
7,0,0,0,0,210
8,0,0,0,0,210
9,0,0,0,0,209
10,0,0,0,0,209
11,0,0,0,0,209
12,0,0,0,0,209
13,0,0,0,0,209
14,0,0,0,0,209
15,0,0,0,0,209
0,0,0,0,0,209
1,0,0,0,0,209
2,0,0,0,0,209
3,0,0,0,0,209
4,0,0,0,0,209
5,0,0,0,0,209
6,0,0,0,0,209
7,0,0,0,0,209
8,0,0,0,0,209
9,0,0,0,0,209
10,0,0,0,0,209
11,0,0,0,0,209
12,0,0,0,0,209
13,0,0,0,0,209
14,0,0,0,0,209
15,0,0,0,0,209
0,0,0,0,0,209
1,0,0,0,0,209
2,0,0,0,0,209
3,0,0,0,0,209
4,0,0,0,0,209
5,0,0,0,0,209
6,0,0,0,0,208
7,0,0,0,0,208
8,0,0,0,0,208
9,0,0,0,0,208
10,0,0,0,0,208
11,0,0,0,0,208
12,0,0,0,0,208
13,0,0,0,0,208
14,0,0,0,0,208
15,0,0,0,0,208
0,0,0,0,0,208
1,0,0,0,0,208
2,0,0,0,0,208
3,0,0,0,0,208
4,0,0,0,0,208
5,0,0,0,0,208
6,0,0,0,0,208
7,0,0,0,0,208
8,0,0,0,0,208
9,0,0,0,0,208
10,0,0,0,0,207
11,0,0,0,0,208
12,0,0,0,0,208
13,0,0,0,0,207
14,0,0,0,0,207
15,0,0,0,0,207
0,0,0,0,0,207
1,0,0,0,0,207
2,0,0,0,0,207
3,0,0,0,0,207
4,0,0,0,0,207
5,0,0,0,0,207
6,0,0,0,0,207
7,0,0,0,0,207
8,0,0,0,0,207
9,0,0,0,0,207
10,0,0,0,0,207
11,0,0,0,0,207
12,0,0,0,0,207
13,0,0,0,0,207
14,0,0,0,0,207
15,0,0,0,0,207
0,0,0,0,0,207
1,0,0,0,0,207
2,0,0,0,0,207
3,0,0,0,0,207
4,0,0,0,0,208
5,0,0,0,0,208
6,0,0,0,0,208
7,0,0,0,0,208
8,0,0,0,0,208
9,0,0,0,0,208
10,0,0,0,0,208
11,0,0,0,0,208
12,0,0,0,0,208
13,0,0,0,0,208
14,0,0,0,0,208
15,0,0,0,0,208
0,0,0,0,0,208
1,0,0,0,0,209
2,0,0,0,0,209
3,0,0,0,0,209
4,0,0,0,0,209
5,0,0,0,0,209
6,0,0,0,0,209
7,0,0,0,0,209
8,0,0,0,0,210
9,0,0,0,0,210
10,0,0,0,0,210
11,0,0,0,0,210
12,0,0,0,0,211
13,0,0,0,0,211
14,0,0,0,0,211
15,0,0,0,0,211
0,0,0,0,0,211
1,0,0,0,0,211
2,0,0,0,0,211
3,0,0,0,0,211
4,0,0,0,0,212
5,0,0,0,0,212
6,0,0,0,0,212
7,0,0,0,0,212
8,0,0,0,0,212
9,0,0,0,0,212
10,0,0,0,0,213
11,0,0,0,0,213
12,0,0,0,0,213
13,0,0,0,0,214
14,0,0,0,0,214
15,0,0,0,0,214
0,0,0,0,0,214
1,0,0,0,0,214
2,0,0,0,0,215
3,0,0,0,0,215
4,0,0,0,0,215
5,0,0,0,0,216
6,0,0,0,0,216
7,0,0,0,0,216
8,0,0,0,0,216
9,0,0,0,0,216
10,0,0,0,0,216
11,0,0,0,0,217
12,0,0,0,0,217
13,0,0,0,0,217
14,0,0,0,0,217
15,0,0,0,0,218
0,0,0,0,0,218
1,0,0,0,0,218
2,0,0,0,0,219
3,0,0,0,0,219
4,0,0,0,0,219
5,0,0,0,0,220
6,0,0,0,0,220
7,0,0,0,0,220
8,0,0,0,0,220
9,0,0,0,0,221
10,0,0,0,0,221
11,0,0,0,0,221
12,0,0,0,0,221
13,0,0,0,0,222
14,0,0,0,0,222
15,0,0,0,0,222
0,0,0,0,0,223
1,0,0,0,0,223
2,0,0,0,0,223
3,0,0,0,0,223
4,0,0,0,0,224
5,0,0,0,0,224
6,0,0,0,0,224
7,0,0,0,0,224
8,0,0,0,0,224
9,0,0,0,0,225
10,0,0,0,0,225
11,0,0,0,0,225
12,0,0,0,0,225
13,0,0,0,0,226
14,0,0,0,0,226
15,0,0,0,0,226
0,0,0,0,0,226
1,0,0,0,0,226
2,0,0,0,0,227
3,0,0,0,0,227
4,0,0,0,0,227
5,0,0,0,0,227
6,0,0,0,0,227
7,0,0,0,0,227
8,0,0,0,0,228
9,0,0,0,0,228
10,0,0,0,0,228
11,0,0,0,0,228
12,0,0,0,0,228
13,0,0,0,0,228
14,0,0,0,0,229
15,0,0,0,0,229
0,0,0,0,0,229
1,0,0,0,0,229
2,0,0,0,0,230
3,0,0,0,0,230
4,0,0,0,0,230
5,0,0,0,0,230
6,0,0,0,0,230
7,0,0,0,0,231
8,0,0,0,0,231
9,0,0,0,0,231
10,0,0,0,0,231
11,0,0,0,0,231
12,0,0,0,0,231
13,0,0,0,0,231
14,0,0,0,0,231
15,0,0,0,0,232
0,0,0,0,0,232
1,0,0,0,0,232
2,0,0,0,0,232
3,0,0,0,0,232
4,0,0,0,0,232
5,0,0,0,0,233
6,0,0,0,0,233
7,0,0,0,0,233
8,0,0,0,0,233
9,0,0,0,0,233
10,0,0,0,0,233
11,0,0,0,0,233
12,0,0,0,0,234
13,0,0,0,0,234
14,0,0,0,0,234
15,0,0,0,0,234
0,0,0,0,0,234
1,0,0,0,0,235
2,0,0,0,0,234
3,0,0,0,0,235
4,0,0,0,0,235
5,0,0,0,0,235
6,0,0,0,0,235
7,0,0,0,0,235
8,0,0,0,0,235
9,0,0,0,0,235
10,0,0,0,0,235
11,0,0,0,0,235
12,0,0,0,0,236
13,0,0,0,0,236
14,0,0,0,0,236
15,0,0,0,0,236
0,0,0,0,0,236
1,0,0,0,0,236
2,0,0,0,0,236
3,0,0,0,0,236
4,0,0,0,0,236
5,0,0,0,0,236
6,0,0,0,0,236
7,0,0,0,0,236
8,0,0,0,0,236
9,0,0,0,0,236
10,0,0,0,0,236
11,0,0,0,0,237
12,0,0,0,0,237
13,0,0,0,0,237
14,0,0,0,0,237
15,0,0,0,0,237
0,0,0,0,0,237
1,0,0,0,0,237
2,0,0,0,0,237
3,0,0,0,0,237
4,0,0,0,0,237
5,0,0,0,0,237
6,0,0,0,0,237
7,0,0,0,0,237
8,0,0,0,0,237
9,0,0,0,0,237
10,0,0,0,0,237
11,0,0,0,0,238
12,0,0,0,0,238
13,0,0,0,0,238
14,0,0,0,0,237
15,0,0,0,0,238
0,0,0,0,0,238
1,0,0,0,0,238
2,0,0,0,0,238
3,0,0,0,0,238
4,0,0,0,0,238
5,0,0,0,0,238
6,0,0,0,0,238
7,0,0,0,0,238
8,0,0,0,0,238
9,0,0,0,0,238
10,0,0,0,0,238
11,0,0,0,0,238
12,0,0,0,0,238
13,0,0,0,0,238
14,0,0,0,0,238
15,0,0,0,0,238
0,0,0,0,0,238
1,0,0,0,0,238
2,0,0,0,0,238
3,0,0,0,0,238
4,0,0,0,0,238
5,0,0,0,0,238
6,0,0,0,0,238
7,0,0,0,0,238
8,0,0,0,0,238
9,0,0,0,0,238
10,0,0,0,0,238
11,0,0,0,0,238
12,0,0,0,0,238
13,0,0,0,0,238
14,0,0,0,0,238
15,0,0,0,0,238
0,0,0,0,0,238
1,0,0,0,0,238
2,0,0,0,0,238
3,0,0,0,0,238
4,0,0,0,0,238
5,0,0,0,0,238
6,0,0,0,0,238
7,0,0,0,0,238
8,0,0,0,0,238
9,0,0,0,0,238
10,0,0,0,0,238
11,0,0,0,0,238
12,0,0,0,0,238
13,0,0,0,0,238
14,0,0,0,0,238
15,0,0,0,0,238
0,0,0,0,0,238
1,0,0,0,0,238
2,0,0,0,0,238
3,0,0,0,0,238
4,0,0,0,0,237
5,0,0,0,0,237
6,0,0,0,0,237
7,0,0,0,0,237
8,0,0,0,0,237
9,0,0,0,0,237
10,0,0,0,0,237
11,0,0,0,0,237
12,0,0,0,0,237
13,0,0,0,0,237
14,0,0,0,0,236
15,0,0,0,0,236
0,0,0,0,0,236
1,0,0,0,0,236
2,0,0,0,0,236
3,0,0,0,0,236
4,0,0,0,0,236
5,0,0,0,0,236
6,0,0,0,0,236
7,0,0,0,0,236
8,0,0,0,0,236
9,0,0,0,0,236
10,0,0,0,0,236
11,0,0,0,0,236
12,0,0,0,0,236
13,0,0,0,0,236
14,0,0,0,0,236
15,0,0,0,0,236
0,0,0,0,0,236
1,0,0,0,0,236
2,0,0,0,0,236
3,0,0,0,0,236
4,0,0,0,0,236
5,0,0,0,0,236
6,0,0,0,0,236
7,0,0,0,0,236
8,0,0,0,0,236
9,0,0,0,0,235
10,0,0,0,0,235
11,0,0,0,0,235
12,0,0,0,0,235
13,0,0,0,0,235
14,0,0,0,0,235
15,0,0,0,0,235
0,0,0,0,0,235
1,0,0,0,0,235
2,0,0,0,0,235
3,0,0,0,0,235
4,0,0,0,0,235
5,0,0,0,0,235
6,0,0,0,0,235
7,0,0,0,0,235
8,0,0,0,0,235
9,0,0,0,0,235
10,0,0,0,0,234
11,0,0,0,0,234
12,0,0,0,0,234
13,0,0,0,0,234
14,0,0,0,0,234
15,0,0,0,0,234
0,0,0,0,0,234
1,0,0,0,0,234
2,0,0,0,0,234
3,0,0,0,0,234
4,0,0,0,0,234
5,0,0,0,0,234
6,0,0,0,0,234
7,0,0,0,0,234
8,0,0,0,0,234
9,0,0,0,0,234
10,0,0,0,0,234
11,0,0,0,0,234
12,0,0,0,0,234
13,0,0,0,0,234
14,0,0,0,0,234
15,0,0,0,0,234
0,0,0,0,0,234
1,0,0,0,0,234
2,0,0,0,0,234
3,0,0,0,0,234
4,0,0,0,0,234
5,0,0,0,0,234
6,0,0,0,0,234
7,0,0,0,0,234
8,0,0,0,0,234
9,0,0,0,0,234
10,0,0,0,0,234
11,0,0,0,0,234
12,0,0,0,0,234
13,0,0,0,0,234
14,0,0,0,0,234
15,0,0,0,0,234
0,0,0,0,0,234
1,0,0,0,0,234
2,0,0,0,0,234
3,0,0,0,0,234
4,0,0,0,0,234
5,0,0,0,0,234
6,0,0,0,0,234
7,0,0,0,0,234
8,0,0,0,0,234
9,0,0,0,0,234
10,0,0,0,0,233
11,0,0,0,0,233
12,0,0,0,0,233
13,0,0,0,0,233
14,0,0,0,0,233
15,0,0,0,0,233
0,0,0,0,0,233
1,0,0,0,0,233
2,0,0,0,0,233
3,0,0,0,0,232
4,0,0,0,0,232
5,0,0,0,0,232
6,0,0,0,0,232
7,0,0,0,0,232
8,0,0,0,0,232
9,0,0,0,0,231
10,0,0,0,0,231
11,0,0,0,0,231
12,0,0,0,0,231
13,0,0,0,0,231
14,0,0,0,0,231
15,0,0,0,0,231
0,0,0,0,0,231
1,0,0,0,0,231
2,0,0,0,0,230
3,0,0,0,0,230
4,0,0,0,0,230
5,0,0,0,0,230
6,0,0,0,0,231
7,0,0,0,0,237
8,0,0,0,0,244
9,0,0,0,0,253
10,0,0,0,0,259
11,0,0,0,0,265
12,0,0,0,0,271
13,0,0,0,0,275
14,0,0,0,0,279
15,0,0,0,0,281
0,0,0,0,0,284
1,0,0,0,0,286
2,0,0,0,0,287
3,0,0,0,0,289
4,0,0,0,0,290
5,0,0,0,0,290
6,0,0,0,0,289
7,0,0,0,0,287
8,0,0,0,0,280
9,0,0,0,0,271
10,0,0,0,0,263
11,0,0,0,0,257
12,0,0,0,0,252
13,0,0,0,0,248
14,0,0,0,0,244
15,0,0,0,0,242
0,0,0,0,0,240
1,0,0,0,0,238
2,0,0,0,0,236
3,0,0,0,0,234
4,0,0,0,0,233
5,0,0,0,0,234
6,0,0,0,0,252
7,0,0,0,0,272
8,0,0,0,0,290
9,0,0,0,0,305
10,0,0,0,0,319
11,0,0,0,0,333
12,0,0,0,0,345
13,0,0,0,0,356
14,0,0,0,0,364
15,0,0,0,0,372
0,0,0,0,0,379
1,0,0,0,0,384
2,0,0,0,0,389
3,0,0,0,0,393
4,0,0,0,0,397
5,0,0,0,0,400
6,0,0,0,0,402
7,0,0,0,0,405
8,0,0,0,0,406
9,0,0,0,0,408
10,0,0,0,0,409
11,0,0,0,0,411
12,0,0,0,0,412
13,0,0,0,0,414
14,0,0,0,0,415
15,0,0,0,0,416
0,0,0,0,0,417
1,0,0,0,0,418
2,0,0,0,0,419
3,0,0,0,0,420
4,0,0,0,0,421
5,0,0,0,0,422
6,0,0,0,0,422
7,0,0,0,0,423
8,0,0,0,0,423
9,0,0,0,0,424
10,0,0,0,0,424
11,0,0,0,0,424
12,0,0,0,0,422
13,0,0,0,0,404
14,0,0,0,0,372
15,0,0,0,0,347
0,0,0,0,0,326
1,0,0,0,0,308
2,0,0,0,0,294
3,0,0,0,0,283
4,0,0,0,0,273
5,0,0,0,0,265
6,0,0,0,0,258
7,0,0,0,0,253
8,0,0,0,0,248
9,0,0,0,0,244
10,0,0,0,0,241
11,0,0,0,0,239
12,0,0,0,0,237
13,0,0,0,0,235
14,0,0,0,0,233
15,0,0,0,0,232
0,0,0,0,0,231
1,0,0,0,0,231
2,0,0,0,0,230
3,0,0,0,0,230
4,0,0,0,0,230
5,0,0,0,0,229
6,0,0,0,0,229
7,0,0,0,0,229
8,0,0,0,0,229
9,0,0,0,0,229
10,0,0,0,0,228
11,0,0,0,0,229
12,0,0,0,0,228
13,0,0,0,0,228
14,0,0,0,0,228
15,0,0,0,0,228
0,0,0,0,0,228
1,0,0,0,0,228
2,0,0,0,0,228
3,0,0,0,0,228
4,0,0,0,0,228
5,0,0,0,0,228
6,0,0,0,0,228
7,0,0,0,0,228
8,0,0,0,0,228
9,0,0,0,0,228
10,0,0,0,0,228
11,0,0,0,0,228
12,0,0,0,0,228
13,0,0,0,0,228
14,0,0,0,0,228
15,0,0,0,0,228
0,0,0,0,0,228
1,0,0,0,0,228
2,0,0,0,0,228
3,0,0,0,0,228
4,0,0,0,0,228
5,0,0,0,0,228
6,0,0,0,0,228
7,0,0,0,0,228
8,0,0,0,0,228
9,0,0,0,0,228
10,0,0,0,0,228
11,0,0,0,0,228
12,0,0,0,0,228
13,0,0,0,0,228
14,0,0,0,0,228
15,0,0,0,0,228
0,0,0,0,0,228
1,0,0,0,0,228
2,0,0,0,0,228
3,0,0,0,0,228
4,0,0,0,0,227
5,0,0,0,0,227
6,0,0,0,0,227
7,0,0,0,0,227
8,0,0,0,0,227
9,0,0,0,0,227
10,0,0,0,0,227
11,0,0,0,0,226
12,0,0,0,0,226
13,0,0,0,0,226
14,0,0,0,0,226
15,0,0,0,0,225
0,0,0,0,0,225
1,0,0,0,0,225
2,0,0,0,0,225
3,0,0,0,0,225
4,0,0,0,0,225
5,0,0,0,0,225
6,0,0,0,0,224
7,0,0,0,0,224
8,0,0,0,0,224
9,0,0,0,0,224
10,0,0,0,0,224
11,0,0,0,0,224
12,0,0,0,0,224
13,0,0,0,0,224
14,0,0,0,0,224
15,0,0,0,0,224
0,0,0,0,0,224
1,0,0,0,0,224
2,0,0,0,0,224
3,0,0,0,0,224
4,0,0,0,0,224
5,0,0,0,0,224
6,0,0,0,0,223
7,0,0,0,0,224
8,0,0,0,0,223
9,0,0,0,0,223
10,0,0,0,0,223
11,0,0,0,0,223
12,0,0,0,0,223
13,0,0,0,0,223
14,0,0,0,0,223
15,0,0,0,0,223
0,0,0,0,0,223
1,0,0,0,0,223
2,0,0,0,0,223
3,0,0,0,0,223
4,0,0,0,0,223
5,0,0,0,0,223
6,0,0,0,0,223
7,0,0,0,0,223
8,0,0,0,0,223
9,0,0,0,0,223
10,0,0,0,0,222
11,0,0,0,0,222
12,0,0,0,0,222
13,0,0,0,0,222
14,0,0,0,0,222
15,0,0,0,0,222
0,0,0,0,0,221
1,0,0,0,0,221
2,0,0,0,0,221
3,0,0,0,0,221
4,0,0,0,0,221
5,0,0,0,0,220
6,0,0,0,0,220
7,0,0,0,0,220
8,0,0,0,0,220
9,0,0,0,0,220
10,0,0,0,0,220
11,0,0,0,0,219
12,0,0,0,0,219
13,0,0,0,0,219
14,0,0,0,0,219
15,0,0,0,0,219
0,0,0,0,0,219
1,0,0,0,0,218
2,0,0,0,0,218
3,0,0,0,0,218
4,0,0,0,0,218
5,0,0,0,0,218
6,0,0,0,0,218
7,0,0,0,0,218
8,0,0,0,0,217
9,0,0,0,0,217
10,0,0,0,0,217
11,0,0,0,0,217
12,0,0,0,0,217
13,0,0,0,0,217
14,0,0,0,0,217
15,0,0,0,0,217
0,0,0,0,0,217
1,0,0,0,0,217
2,0,0,0,0,216
3,0,0,0,0,216
4,0,0,0,0,216
5,0,0,0,0,216
6,0,0,0,0,216
7,0,0,0,0,216
8,0,0,0,0,216
9,0,0,0,0,216
10,0,0,0,0,216
11,0,0,0,0,216
12,0,0,0,0,216
13,0,0,0,0,216
14,0,0,0,0,216
15,0,0,0,0,216
0,0,0,0,0,216
1,0,0,0,0,216
2,0,0,0,0,215
3,0,0,0,0,215
4,0,0,0,0,215
5,0,0,0,0,215
6,0,0,0,0,215
7,0,0,0,0,215
8,0,0,0,0,215
9,0,0,0,0,215
10,0,0,0,0,215
11,0,0,0,0,215
12,0,0,0,0,215
13,0,0,0,0,215
14,0,0,0,0,215
15,0,0,0,0,215
0,0,0,0,0,215
1,0,0,0,0,215
2,0,0,0,0,215
3,0,0,0,0,216
4,0,0,0,0,216
5,0,0,0,0,216
6,0,0,0,0,216
7,0,0,0,0,216
8,0,0,0,0,216
9,0,0,0,0,216
10,0,0,0,0,216
11,0,0,0,0,216
12,0,0,0,0,216
13,0,0,0,0,216
14,0,0,0,0,216
15,0,0,0,0,216
0,0,0,0,0,216
1,0,0,0,0,216
2,0,0,0,0,216
3,0,0,0,0,216
4,0,0,0,0,216
5,0,0,0,0,216
6,0,0,0,0,216
7,0,0,0,0,217
8,0,0,0,0,217
9,0,0,0,0,217
10,0,0,0,0,217
11,0,0,0,0,217
12,0,0,0,0,217
13,0,0,0,0,217
14,0,0,0,0,217
15,0,0,0,0,217
0,0,0,0,0,217
1,0,0,0,0,217
2,0,0,0,0,217
3,0,0,0,0,218
4,0,0,0,0,218
5,0,0,0,0,218
6,0,0,0,0,218
7,0,0,0,0,218
8,0,0,0,0,219
9,0,0,0,0,219
10,0,0,0,0,219
11,0,0,0,0,219
12,0,0,0,0,219
13,0,0,0,0,219
14,0,0,0,0,219
15,0,0,0,0,219
0,0,0,0,0,219
1,0,0,0,0,220
2,0,0,0,0,220
3,0,0,0,0,220
4,0,0,0,0,220
5,0,0,0,0,220
6,0,0,0,0,220
7,0,0,0,0,220
8,0,0,0,0,220
9,0,0,0,0,220
10,0,0,0,0,220
11,0,0,0,0,221
12,0,0,0,0,221
13,0,0,0,0,221
14,0,0,0,0,221
15,0,0,0,0,221
0,0,0,0,0,222
1,0,0,0,0,222
2,0,0,0,0,222
3,0,0,0,0,222
4,0,0,0,0,222
5,0,0,0,0,222
6,0,0,0,0,222
7,0,0,0,0,223
8,0,0,0,0,223
9,0,0,0,0,223
10,0,0,0,0,223
11,0,0,0,0,223
12,0,0,0,0,223
13,0,0,0,0,223
14,0,0,0,0,223
15,0,0,0,0,223
0,0,0,0,0,224
1,0,0,0,0,224
2,0,0,0,0,224
3,0,0,0,0,224
4,0,0,0,0,224
5,0,0,0,0,224
6,0,0,0,0,224
7,0,0,0,0,224
8,0,0,0,0,224
9,0,0,0,0,224
10,0,0,0,0,224
11,0,0,0,0,224
12,0,0,0,0,224
13,0,0,0,0,224
14,0,0,0,0,224
15,0,0,0,0,225
0,0,0,0,0,225
1,0,0,0,0,225
2,0,0,0,0,225
3,0,0,0,0,225
4,0,0,0,0,225
5,0,0,0,0,225
6,0,0,0,0,225
7,0,0,0,0,225
8,0,0,0,0,225
9,0,0,0,0,225
10,0,0,0,0,225
11,0,0,0,0,225
12,0,0,0,0,225
13,0,0,0,0,225
14,0,0,0,0,225
15,0,0,0,0,225
0,0,0,0,0,225
1,0,0,0,0,225
2,0,0,0,0,224
3,0,0,0,0,225
4,0,0,0,0,225
5,0,0,0,0,225
6,0,0,0,0,225
7,0,0,0,0,225
8,0,0,0,0,225
9,0,0,0,0,225
10,0,0,0,0,225
11,0,0,0,0,225
12,0,0,0,0,225
13,0,0,0,0,225
14,0,0,0,0,225
15,0,0,0,0,225
0,0,0,0,0,225
1,0,0,0,0,226
2,0,0,0,0,226
3,0,0,0,0,226
4,0,0,0,0,226
5,0,0,0,0,227
6,0,0,0,0,227
7,0,0,0,0,227
8,0,0,0,0,227
9,0,0,0,0,227
10,0,0,0,0,227
11,0,0,0,0,227
12,0,0,0,0,227
13,0,0,0,0,228
14,0,0,0,0,228
15,0,0,0,0,228
0,0,0,0,0,228
1,0,0,0,0,228
2,0,0,0,0,228
3,0,0,0,0,228
4,0,0,0,0,228
5,0,0,0,0,228
6,0,0,0,0,228
7,0,0,0,0,229
8,0,0,0,0,229
9,0,0,0,0,229
10,0,0,0,0,229
11,0,0,0,0,229
12,0,0,0,0,229
13,0,0,0,0,229
14,0,0,0,0,229
15,0,0,0,0,229
0,0,0,0,0,229
1,0,0,0,0,229
2,0,0,0,0,229
3,0,0,0,0,229
4,0,0,0,0,229
5,0,0,0,0,229
6,0,0,0,0,230
7,0,0,0,0,230
8,0,0,0,0,230
9,0,0,0,0,230
10,0,0,0,0,230
11,0,0,0,0,230
12,0,0,0,0,231
13,0,0,0,0,231
14,0,0,0,0,231
15,0,0,0,0,231
0,0,0,0,0,231
1,0,0,0,0,231
2,0,0,0,0,231
3,0,0,0,0,231
4,0,0,0,0,231
5,0,0,0,0,231
6,0,0,0,0,231
7,0,0,0,0,231
8,0,0,0,0,231
9,0,0,0,0,231
10,0,0,0,0,231
11,0,0,0,0,231
12,0,0,0,0,231
13,0,0,0,0,231
14,0,0,0,0,231
15,0,0,0,0,231
0,0,0,0,0,231
1,0,0,0,0,231
2,0,0,0,0,231
3,0,0,0,0,231
4,0,0,0,0,231
5,0,0,0,0,231
6,0,0,0,0,231
7,0,0,0,0,231
8,0,0,0,0,231
9,0,0,0,0,232
10,0,0,0,0,231
11,0,0,0,0,231
12,0,0,0,0,231
13,0,0,0,0,231
14,0,0,0,0,231
15,0,0,0,0,231
0,0,0,0,0,231
1,0,0,0,0,231
2,0,0,0,0,231
3,0,0,0,0,231
4,0,0,0,0,231
5,0,0,0,0,231
6,0,0,0,0,231
7,0,0,0,0,231
8,0,0,0,0,231
9,0,0,0,0,231
10,0,0,0,0,231
11,0,0,0,0,231
12,0,0,0,0,231
13,0,0,0,0,231
14,0,0,0,0,231
15,0,0,0,0,231
0,0,0,0,0,231
1,0,0,0,0,231
2,0,0,0,0,231
3,0,0,0,0,231
4,0,0,0,0,231
5,0,0,0,0,231
6,0,0,0,0,231
7,0,0,0,0,231
8,0,0,0,0,231
9,0,0,0,0,231
10,0,0,0,0,231
11,0,0,0,0,231
12,0,0,0,0,231
13,0,0,0,0,231
14,0,0,0,0,231
15,0,0,0,0,231
0,0,0,0,0,231
1,0,0,0,0,231
2,0,0,0,0,231
3,0,0,0,0,231
4,0,0,0,0,231
5,0,0,0,0,230
6,0,0,0,0,230
7,0,0,0,0,230
8,0,0,0,0,230
9,0,0,0,0,230
10,0,0,0,0,230
11,0,0,0,0,230
12,0,0,0,0,230
13,0,0,0,0,230
14,0,0,0,0,230
15,0,0,0,0,230
0,0,0,0,0,230
1,0,0,0,0,229
2,0,0,0,0,229
3,0,0,0,0,229
4,0,0,0,0,229
5,0,0,0,0,229
6,0,0,0,0,229
7,0,0,0,0,229
8,0,0,0,0,229
9,0,0,0,0,229
10,0,0,0,0,228
11,0,0,0,0,228
12,0,0,0,0,228
13,0,0,0,0,228
14,0,0,0,0,228
15,0,0,0,0,228
0,0,0,0,0,228
1,0,0,0,0,228
2,0,0,0,0,228
3,0,0,0,0,228
4,0,0,0,0,228
5,0,0,0,0,228
6,0,0,0,0,227
7,0,0,0,0,227
8,0,0,0,0,227
9,0,0,0,0,227
10,0,0,0,0,227
11,0,0,0,0,227
12,0,0,0,0,227
13,0,0,0,0,227
14,0,0,0,0,227
15,0,0,0,0,227
0,0,0,0,0,227
1,0,0,0,0,227
2,0,0,0,0,227
3,0,0,0,0,227
4,0,0,0,0,227
5,0,0,0,0,227
6,0,0,0,0,227
7,0,0,0,0,227
8,0,0,0,0,227
9,0,0,0,0,227
10,0,0,0,0,227
11,0,0,0,0,227
12,0,0,0,0,227
13,0,0,0,0,227
14,0,0,0,0,227
15,0,0,0,0,227
0,0,0,0,0,227
1,0,0,0,0,227
2,0,0,0,0,227
3,0,0,0,0,227
4,0,0,0,0,227
5,0,0,0,0,227
6,0,0,0,0,227
7,0,0,0,0,227
8,0,0,0,0,227
9,0,0,0,0,226
10,0,0,0,0,226
11,0,0,0,0,226
12,0,0,0,0,226
13,0,0,0,0,226
14,0,0,0,0,226
15,0,0,0,0,226
0,0,0,0,0,226
1,0,0,0,0,226
2,0,0,0,0,226
3,0,0,0,0,226
4,0,0,0,0,226
5,0,0,0,0,226
6,0,0,0,0,226
7,0,0,0,0,226
8,0,0,0,0,226
9,0,0,0,0,226
10,0,0,0,0,226
11,0,0,0,0,226
12,0,0,0,0,226
13,0,0,0,0,226
14,0,0,0,0,225
15,0,0,0,0,225
0,0,0,0,0,225
1,0,0,0,0,225
2,0,0,0,0,225
3,0,0,0,0,225
4,0,0,0,0,225
5,0,0,0,0,225
6,0,0,0,0,225
7,0,0,0,0,225
8,0,0,0,0,225
9,0,0,0,0,225
10,0,0,0,0,225
11,0,0,0,0,225
12,0,0,0,0,225
13,0,0,0,0,225
14,0,0,0,0,225
15,0,0,0,0,225
0,0,0,0,0,225
1,0,0,0,0,225
2,0,0,0,0,225
3,0,0,0,0,225
4,0,0,0,0,225
5,0,0,0,0,225
6,0,0,0,0,225
7,0,0,0,0,225
8,0,0,0,0,225
9,0,0,0,0,225
10,0,0,0,0,225
11,0,0,0,0,225
12,0,0,0,0,225
13,0,0,0,0,225
14,0,0,0,0,225
15,0,0,0,0,225
0,0,0,0,0,225
1,0,0,0,0,225
2,0,0,0,0,225
3,0,0,0,0,225
4,0,0,0,0,225
5,0,0,0,0,225
6,0,0,0,0,225
7,0,0,0,0,225
8,0,0,0,0,225
9,0,0,0,0,225
10,0,0,0,0,225
11,0,0,0,0,225
12,0,0,0,0,225
13,0,0,0,0,225
14,0,0,0,0,225
15,0,0,0,0,225
0,0,0,0,0,225
1,0,0,0,0,225
2,0,0,0,0,225
3,0,0,0,0,225
4,0,0,0,0,225
5,0,0,0,0,225
6,0,0,0,0,225
7,0,0,0,0,225
8,0,0,0,0,225
9,0,0,0,0,225
10,0,0,0,0,225
11,0,0,0,0,225
12,0,0,0,0,225
13,0,0,0,0,225
14,0,0,0,0,225
15,0,0,0,0,225
0,0,0,0,0,225
1,0,0,0,0,225
2,0,0,0,0,224
3,0,0,0,0,224
4,0,0,0,0,224
5,0,0,0,0,224
6,0,0,0,0,224
7,0,0,0,0,224
8,0,0,0,0,224
9,0,0,0,0,224
10,0,0,0,0,224
11,0,0,0,0,224
12,0,0,0,0,224
13,0,0,0,0,224
14,0,0,0,0,224
15,0,0,0,0,224
0,0,0,0,0,224
1,0,0,0,0,224
2,0,0,0,0,224
3,0,0,0,0,224
4,0,0,0,0,224
5,0,0,0,0,224
6,0,0,0,0,224
7,0,0,0,0,224
8,0,0,0,0,224
9,0,0,0,0,224
10,0,0,0,0,224
11,0,0,0,0,224
12,0,0,0,0,224
13,0,0,0,0,224
14,0,0,0,0,224
15,0,0,0,0,224
0,0,0,0,0,224
1,0,0,0,0,224
2,0,0,0,0,223
3,0,0,0,0,223
4,0,0,0,0,223
5,0,0,0,0,223
6,0,0,0,0,223
7,0,0,0,0,223
8,0,0,0,0,223
9,0,0,0,0,223
10,0,0,0,0,223
11,0,0,0,0,223
12,0,0,0,0,223
13,0,0,0,0,222
14,0,0,0,0,222
15,0,0,0,0,222
0,0,0,0,0,222
1,0,0,0,0,222
2,0,0,0,0,222
3,0,0,0,0,221
4,0,0,0,0,221
5,0,0,0,0,221
6,0,0,0,0,221
7,0,0,0,0,220
8,0,0,0,0,220
9,0,0,0,0,220
10,0,0,0,0,220
11,0,0,0,0,219
12,0,0,0,0,219
13,0,0,0,0,219
14,0,0,0,0,219
15,0,0,0,0,218
0,0,0,0,0,218
1,0,0,0,0,218
2,0,0,0,0,217
3,0,0,0,0,217
4,0,0,0,0,217
5,0,0,0,0,217
6,0,0,0,0,217
7,0,0,0,0,216
8,0,0,0,0,216
9,0,0,0,0,216
10,0,0,0,0,216
11,0,0,0,0,216
12,0,0,0,0,216
13,0,0,0,0,216
14,0,0,0,0,215
15,0,0,0,0,215
0,0,0,0,0,215
1,0,0,0,0,215
2,0,0,0,0,215
3,0,0,0,0,215
4,0,0,0,0,215
5,0,0,0,0,215
6,0,0,0,0,215
7,0,0,0,0,215
8,0,0,0,0,215
9,0,0,0,0,214
10,0,0,0,0,214
11,0,0,0,0,214
12,0,0,0,0,214
13,0,0,0,0,214
14,0,0,0,0,214
15,0,0,0,0,214
0,0,0,0,0,214
1,0,0,0,0,213
2,0,0,0,0,213
3,0,0,0,0,213
4,0,0,0,0,213
5,0,0,0,0,212
6,0,0,0,0,212
7,0,0,0,0,212
8,0,0,0,0,212
9,0,0,0,0,212
10,0,0,0,0,212
11,0,0,0,0,212
12,0,0,0,0,212
13,0,0,0,0,212
14,0,0,0,0,212
15,0,0,0,0,211
0,0,0,0,0,211
1,0,0,0,0,211
2,0,0,0,0,211
3,0,0,0,0,211
4,0,0,0,0,211
5,0,0,0,0,211
6,0,0,0,0,211
7,0,0,0,0,211
8,0,0,0,0,211
9,0,0,0,0,211
10,0,0,0,0,211
11,0,0,0,0,211
12,0,0,0,0,211
13,0,0,0,0,211
14,0,0,0,0,210
15,0,0,0,0,210
0,0,0,0,0,210
1,0,0,0,0,210
2,0,0,0,0,210
3,0,0,0,0,210
4,0,0,0,0,210
5,0,0,0,0,210
6,0,0,0,0,210
7,0,0,0,0,209
8,0,0,0,0,209
9,0,0,0,0,209
10,0,0,0,0,209
11,0,0,0,0,209
12,0,0,0,0,209
13,0,0,0,0,209
14,0,0,0,0,209
15,0,0,0,0,209
0,0,0,0,0,209
1,0,0,0,0,209
2,0,0,0,0,209
3,0,0,0,0,209
4,0,0,0,0,209
5,0,0,0,0,209
6,0,0,0,0,209
7,0,0,0,0,209
8,0,0,0,0,209
9,0,0,0,0,209
10,0,0,0,0,209
11,0,0,0,0,209
12,0,0,0,0,209
13,0,0,0,0,209
14,0,0,0,0,209
15,0,0,0,0,209
0,0,0,0,0,209
1,0,0,0,0,209
2,0,0,0,0,209
3,0,0,0,0,209
4,0,0,0,0,209
5,0,0,0,0,209
6,0,0,0,0,209
7,0,0,0,0,209
8,0,0,0,0,209
9,0,0,0,0,209
10,0,0,0,0,209
11,0,0,0,0,209
12,0,0,0,0,209
13,0,0,0,0,209
14,0,0,0,0,209
15,0,0,0,0,209
0,0,0,0,0,209
1,0,0,0,0,209
2,0,0,0,0,209
3,0,0,0,0,209
4,0,0,0,0,209
5,0,0,0,0,210
6,0,0,0,0,210
7,0,0,0,0,211
8,0,0,0,0,211
9,0,0,0,0,211
10,0,0,0,0,212
11,0,0,0,0,213
12,0,0,0,0,213
13,0,0,0,0,214
14,0,0,0,0,214
15,0,0,0,0,214
0,0,0,0,0,215
1,0,0,0,0,215
2,0,0,0,0,216
3,0,0,0,0,216
4,0,0,0,0,217
5,0,0,0,0,217
6,0,0,0,0,217
7,0,0,0,0,218
8,0,0,0,0,219
9,0,0,0,0,219
10,0,0,0,0,219
11,0,0,0,0,220
12,0,0,0,0,220
13,0,0,0,0,220
14,0,0,0,0,221
15,0,0,0,0,221
0,0,0,0,0,222
1,0,0,0,0,222
2,0,0,0,0,222
3,0,0,0,0,222
4,0,0,0,0,223
5,0,0,0,0,223
6,0,0,0,0,223
7,0,0,0,0,223
8,0,0,0,0,224
9,0,0,0,0,224
10,0,0,0,0,224
11,0,0,0,0,224
12,0,0,0,0,225
13,0,0,0,0,225
14,0,0,0,0,225
15,0,0,0,0,225
0,0,0,0,0,225
1,0,0,0,0,225
2,0,0,0,0,225
3,0,0,0,0,226
4,0,0,0,0,226
5,0,0,0,0,226
6,0,0,0,0,226
7,0,0,0,0,226
8,0,0,0,0,227
9,0,0,0,0,227
10,0,0,0,0,227
11,0,0,0,0,227
12,0,0,0,0,227
13,0,0,0,0,227
14,0,0,0,0,227
15,0,0,0,0,227
0,0,0,0,0,227
1,0,0,0,0,227
2,0,0,0,0,227
3,0,0,0,0,227
4,0,0,0,0,228
5,0,0,0,0,228
6,0,0,0,0,228
7,0,0,0,0,228
8,0,0,0,0,228
9,0,0,0,0,228
10,0,0,0,0,228
11,0,0,0,0,228
12,0,0,0,0,228
13,0,0,0,0,228
14,0,0,0,0,228
15,0,0,0,0,228
0,0,0,0,0,229
1,0,0,0,0,229
2,0,0,0,0,229
3,0,0,0,0,229
4,0,0,0,0,229
5,0,0,0,0,229
6,0,0,0,0,229
7,0,0,0,0,229
8,0,0,0,0,230
9,0,0,0,0,230
10,0,0,0,0,230
11,0,0,0,0,230
12,0,0,0,0,230
13,0,0,0,0,230
14,0,0,0,0,230
15,0,0,0,0,230
0,0,0,0,0,230
1,0,0,0,0,230
2,0,0,0,0,230
3,0,0,0,0,230
4,0,0,0,0,230
5,0,0,0,0,231
6,0,0,0,0,231
7,0,0,0,0,231
8,0,0,0,0,231
9,0,0,0,0,231
10,0,0,0,0,231
11,0,0,0,0,231
12,0,0,0,0,231
13,0,0,0,0,231
14,0,0,0,0,231
15,0,0,0,0,233
0,0,0,0,0,241
1,0,0,0,0,251
2,0,0,0,0,261
3,0,0,0,0,271
4,0,0,0,0,280
5,0,0,0,0,289
6,0,0,0,0,297
7,0,0,0,0,306
8,0,0,0,0,315
9,0,0,0,0,324
10,0,0,0,0,333
11,0,0,0,0,341
12,0,0,0,0,350
13,0,0,0,0,359
14,0,0,0,0,368
15,0,0,0,0,377
0,0,0,0,0,386
1,0,0,0,0,393
2,0,0,0,0,399
3,0,0,0,0,401
4,0,0,0,0,395
5,0,0,0,0,377
6,0,0,0,0,356
7,0,0,0,0,336
8,0,0,0,0,319
9,0,0,0,0,303
10,0,0,0,0,291
11,0,0,0,0,283
12,0,0,0,0,281
13,0,0,0,0,283
14,0,0,0,0,287
15,0,0,0,0,290
0,0,0,0,0,299
1,0,0,0,0,315
2,0,0,0,0,336
3,0,0,0,0,363
4,0,0,0,0,389
5,0,0,0,0,414
6,0,0,0,0,438
7,0,0,0,0,459
8,0,0,0,0,479
9,0,0,0,0,496
10,0,0,0,0,512
11,0,0,0,0,527
12,0,0,0,0,540
13,0,0,0,0,551
14,0,0,0,0,561
15,0,0,0,0,571
0,0,0,0,0,579
1,0,0,0,0,586
2,0,0,0,0,593
3,0,0,0,0,599
4,0,0,0,0,604
5,0,0,0,0,608
6,0,0,0,0,612
7,0,0,0,0,615
8,0,0,0,0,620
9,0,0,0,0,623
10,0,0,0,0,626
11,0,0,0,0,630
12,0,0,0,0,632
13,0,0,0,0,634
14,0,0,0,0,637
15,0,0,0,0,639
0,0,0,0,0,641
1,0,0,0,0,643
2,0,0,0,0,644
3,0,0,0,0,645
4,0,0,0,0,647
5,0,0,0,0,647
6,0,0,0,0,649
7,0,0,0,0,649
8,0,0,0,0,651
9,0,0,0,0,652
10,0,0,0,0,653
11,0,0,0,0,655
12,0,0,0,0,657
13,0,0,0,0,659
14,0,0,0,0,662
15,0,0,0,0,664
0,0,0,0,0,666
1,0,0,0,0,668
2,0,0,0,0,671
3,0,0,0,0,673
4,0,0,0,0,676
5,0,0,0,0,679
6,0,0,0,0,683
7,0,0,0,0,687
8,0,0,0,0,691
9,0,0,0,0,696
10,0,0,0,0,701
11,0,0,0,0,706
12,0,0,0,0,711
13,0,0,0,0,717
14,0,0,0,0,721
15,0,0,0,0,726
0,0,0,0,0,730
1,0,0,0,0,734
2,0,0,0,0,739
3,0,0,0,0,743
4,0,0,0,0,748
5,0,0,0,0,753
6,0,0,0,0,759
7,0,0,0,0,765
8,0,0,0,0,770
9,0,0,0,0,776
10,0,0,0,0,782
11,0,0,0,0,788
12,0,0,0,0,793
13,0,0,0,0,798
14,0,0,0,0,803
15,0,0,0,0,807
0,0,0,0,0,810
1,0,0,0,0,813
2,0,0,0,0,816
3,0,0,0,0,818
4,0,0,0,0,821
5,0,0,0,0,824
6,0,0,0,0,826
7,0,0,0,0,829
8,0,0,0,0,832
9,0,0,0,0,834
10,0,0,0,0,837
11,0,0,0,0,839
12,0,0,0,0,841
13,0,0,0,0,844
14,0,0,0,0,846
15,0,0,0,0,848
0,0,0,0,0,851
1,0,0,0,0,856
2,0,0,0,0,860
3,0,0,0,0,865
4,0,0,0,0,869
5,0,0,0,0,872
6,0,0,0,0,876
7,0,0,0,0,878
8,0,0,0,0,880
9,0,0,0,0,882
10,0,0,0,0,884
11,0,0,0,0,885
12,0,0,0,0,887
13,0,0,0,0,889
14,0,0,0,0,891
15,0,0,0,0,893
0,0,0,0,0,895
1,0,0,0,0,896
2,0,0,0,0,898
3,0,0,0,0,900
4,0,0,0,0,902
5,0,0,0,0,904
6,0,0,0,0,906
7,0,0,0,0,908
8,0,0,0,0,910
9,0,0,0,0,912
10,0,0,0,0,915
11,0,0,0,0,918
12,0,0,0,0,921
13,0,0,0,0,924
14,0,0,0,0,926
15,0,0,0,0,928
0,0,0,0,0,929
1,0,0,0,0,930
2,0,0,0,0,931
3,0,0,0,0,931
4,0,0,0,0,930
5,0,0,0,0,930
6,0,0,0,0,929
7,0,0,0,0,928
8,0,0,0,0,927
9,0,0,0,0,927
10,0,0,0,0,926
11,0,0,0,0,925
12,0,0,0,0,925
13,0,0,0,0,925
14,0,0,0,0,926
15,0,0,0,0,926
0,0,0,0,0,927
1,0,0,0,0,928
2,0,0,0,0,929
3,0,0,0,0,930
4,0,0,0,0,932
5,0,0,0,0,934
6,0,0,0,0,935
7,0,0,0,0,936
8,0,0,0,0,938
9,0,0,0,0,939
10,0,0,0,0,941
11,0,0,0,0,942
12,0,0,0,0,943
13,0,0,0,0,944
14,0,0,0,0,944
15,0,0,0,0,944
0,0,0,0,0,944
1,0,0,0,0,943
2,0,0,0,0,943
3,0,0,0,0,942
4,0,0,0,0,941
5,0,0,0,0,938
6,0,0,0,0,931
7,0,0,0,0,908
8,0,0,0,0,853
9,0,0,0,0,761
10,0,0,0,0,668
11,0,0,0,0,591
12,0,0,0,0,528
13,0,0,0,0,476
14,0,0,0,0,432
15,0,0,0,0,396
0,0,0,0,0,367
1,0,0,0,0,341
2,0,0,0,0,321
3,0,0,0,0,303
4,0,0,0,0,289
5,0,0,0,0,277
6,0,0,0,0,267
7,0,0,0,0,258
8,0,0,0,0,251
9,0,0,0,0,245
10,0,0,0,0,241
11,0,0,0,0,237
12,0,0,0,0,233
13,0,0,0,0,231
14,0,0,0,0,228
15,0,0,0,0,227
0,0,0,0,0,225
1,0,0,0,0,224
2,0,0,0,0,223
3,0,0,0,0,222
4,0,0,0,0,221
5,0,0,0,0,220
6,0,0,0,0,220
7,0,0,0,0,220
8,0,0,0,0,219
9,0,0,0,0,219
10,0,0,0,0,219
11,0,0,0,0,219
12,0,0,0,0,219
13,0,0,0,0,219
14,0,0,0,0,219
15,0,0,0,0,219
0,0,0,0,0,219
1,0,0,0,0,219
2,0,0,0,0,219
3,0,0,0,0,219
4,0,0,0,0,219
5,0,0,0,0,219
6,0,0,0,0,219
7,0,0,0,0,219
8,0,0,0,0,219
9,0,0,0,0,219
10,0,0,0,0,219
11,0,0,0,0,219
12,0,0,0,0,219
13,0,0,0,0,219
14,0,0,0,0,219
15,0,0,0,0,219
0,0,0,0,0,219
1,0,0,0,0,219
2,0,0,0,0,219
3,0,0,0,0,219
4,0,0,0,0,219
5,0,0,0,0,219
6,0,0,0,0,219
7,0,0,0,0,219
8,0,0,0,0,219
9,0,0,0,0,219
10,0,0,0,0,219
11,0,0,0,0,219
12,0,0,0,0,220
13,0,0,0,0,220
14,0,0,0,0,220
15,0,0,0,0,220
0,0,0,0,0,220
1,0,0,0,0,220
2,0,0,0,0,220
3,0,0,0,0,220
4,0,0,0,0,220
5,0,0,0,0,220
6,0,0,0,0,220
7,0,0,0,0,220
8,0,0,0,0,220
9,0,0,0,0,220
10,0,0,0,0,220
11,0,0,0,0,220
12,0,0,0,0,220
13,0,0,0,0,220
14,0,0,0,0,220
15,0,0,0,0,220
0,0,0,0,0,220
1,0,0,0,0,220
2,0,0,0,0,220
3,0,0,0,0,220
4,0,0,0,0,220
5,0,0,0,0,220
6,0,0,0,0,220
7,0,0,0,0,220
8,0,0,0,0,220
9,0,0,0,0,220
10,0,0,0,0,220
11,0,0,0,0,220
12,0,0,0,0,220
13,0,0,0,0,220
14,0,0,0,0,220
15,0,0,0,0,220
0,0,0,0,0,220
1,0,0,0,0,220
2,0,0,0,0,220
3,0,0,0,0,220
4,0,0,0,0,220
5,0,0,0,0,220
6,0,0,0,0,220
7,0,0,0,0,220
8,0,0,0,0,220
9,0,0,0,0,220
10,0,0,0,0,220
11,0,0,0,0,220
12,0,0,0,0,220
13,0,0,0,0,220
14,0,0,0,0,220
15,0,0,0,0,220
0,0,0,0,0,220
1,0,0,0,0,220
2,0,0,0,0,220
3,0,0,0,0,220
4,0,0,0,0,220
5,0,0,0,0,220
6,0,0,0,0,220
7,0,0,0,0,220
8,0,0,0,0,221
9,0,0,0,0,220
10,0,0,0,0,220
11,0,0,0,0,220
12,0,0,0,0,221
13,0,0,0,0,220
14,0,0,0,0,220
15,0,0,0,0,220
0,0,0,0,0,221
1,0,0,0,0,220
2,0,0,0,0,220
3,0,0,0,0,220
4,0,0,0,0,221
5,0,0,0,0,220
6,0,0,0,0,220
7,0,0,0,0,220
8,0,0,0,0,221
9,0,0,0,0,220
10,0,0,0,0,221
11,0,0,0,0,220
12,0,0,0,0,221
13,0,0,0,0,221
14,0,0,0,0,220
15,0,0,0,0,221
0,0,0,0,0,221
1,0,0,0,0,221
2,0,0,0,0,221
3,0,0,0,0,221
4,0,0,0,0,221
5,0,0,0,0,221
6,0,0,0,0,221
7,0,0,0,0,221
8,0,0,0,0,221
9,0,0,0,0,221
10,0,0,0,0,221
11,0,0,0,0,221
12,0,0,0,0,221
13,0,0,0,0,221
14,0,0,0,0,221
15,0,0,0,0,221
0,0,0,0,0,221
1,0,0,0,0,221
2,0,0,0,0,221
3,0,0,0,0,221
4,0,0,0,0,221
5,0,0,0,0,221
6,0,0,0,0,221
7,0,0,0,0,221
8,0,0,0,0,221
9,0,0,0,0,221
10,0,0,0,0,221
11,0,0,0,0,221
12,0,0,0,0,221
13,0,0,0,0,221
14,0,0,0,0,221
15,0,0,0,0,221
0,0,0,0,0,221
1,0,0,0,0,221
2,0,0,0,0,221
3,0,0,0,0,221
4,0,0,0,0,221
5,0,0,0,0,221
6,0,0,0,0,221
7,0,0,0,0,221
8,0,0,0,0,221
9,0,0,0,0,221
10,0,0,0,0,221
11,0,0,0,0,221
12,0,0,0,0,221
13,0,0,0,0,221
14,0,0,0,0,221
15,0,0,0,0,221
0,0,0,0,0,222
1,0,0,0,0,221
2,0,0,0,0,221
3,0,0,0,0,221
4,0,0,0,0,222
5,0,0,0,0,221
6,0,0,0,0,221
7,0,0,0,0,221
8,0,0,0,0,222
9,0,0,0,0,221
10,0,0,0,0,221
11,0,0,0,0,221
12,0,0,0,0,221
13,0,0,0,0,221
14,0,0,0,0,221
15,0,0,0,0,221
0,0,0,0,0,222
1,0,0,0,0,221
2,0,0,0,0,221
3,0,0,0,0,221
4,0,0,0,0,221
5,0,0,0,0,221
6,0,0,0,0,221
7,0,0,0,0,221
8,0,0,0,0,221
9,0,0,0,0,221
10,0,0,0,0,221
11,0,0,0,0,221
12,0,0,0,0,221
13,0,0,0,0,221
14,0,0,0,0,221
15,0,0,0,0,221
0,0,0,0,0,221
1,0,0,0,0,221
2,0,0,0,0,221
3,0,0,0,0,221
4,0,0,0,0,221
5,0,0,0,0,221
6,0,0,0,0,221
7,0,0,0,0,221
8,0,0,0,0,221
9,0,0,0,0,221
10,0,0,0,0,221
11,0,0,0,0,221
12,0,0,0,0,221
13,0,0,0,0,221
14,0,0,0,0,221
15,0,0,0,0,221
0,0,0,0,0,221
1,0,0,0,0,221
2,0,0,0,0,221
3,0,0,0,0,221
4,0,0,0,0,221
5,0,0,0,0,221
6,0,0,0,0,221
7,0,0,0,0,221
8,0,0,0,0,221
9,0,0,0,0,221
10,0,0,0,0,221
11,0,0,0,0,221
12,0,0,0,0,221
13,0,0,0,0,221
14,0,0,0,0,221
15,0,0,0,0,221
0,0,0,0,0,221
1,0,0,0,0,221
2,0,0,0,0,221
3,0,0,0,0,221
4,0,0,0,0,221
5,0,0,0,0,221
6,0,0,0,0,221
7,0,0,0,0,221
8,0,0,0,0,221
9,0,0,0,0,221
10,0,0,0,0,221
11,0,0,0,0,221
12,0,0,0,0,221
13,0,0,0,0,221
14,0,0,0,0,221
15,0,0,0,0,221
0,0,0,0,0,221
1,0,0,0,0,221
2,0,0,0,0,221
3,0,0,0,0,221
4,0,0,0,0,221
5,0,0,0,0,221
6,0,0,0,0,221
7,0,0,0,0,221
8,0,0,0,0,221
9,0,0,0,0,221
10,0,0,0,0,221
11,0,0,0,0,221
12,0,0,0,0,221
13,0,0,0,0,221
14,0,0,0,0,221
15,0,0,0,0,221
0,0,0,0,0,222
1,0,0,0,0,221
2,0,0,0,0,221
3,0,0,0,0,221
4,0,0,0,0,222
5,0,0,0,0,221
6,0,0,0,0,221
7,0,0,0,0,221
8,0,0,0,0,222
9,0,0,0,0,221
10,0,0,0,0,222
11,0,0,0,0,221
12,0,0,0,0,222
13,0,0,0,0,221
14,0,0,0,0,221
15,0,0,0,0,221
0,0,0,0,0,222
1,0,0,0,0,221
2,0,0,0,0,222
3,0,0,0,0,222
4,0,0,0,0,222
5,0,0,0,0,222
6,0,0,0,0,222
7,0,0,0,0,222
8,0,0,0,0,222
9,0,0,0,0,222
10,0,0,0,0,222
11,0,0,0,0,222
12,0,0,0,0,222
13,0,0,0,0,222
14,0,0,0,0,222
15,0,0,0,0,222
0,0,0,0,0,222
1,0,0,0,0,222
2,0,0,0,0,222
3,0,0,0,0,222
4,0,0,0,0,222
5,0,0,0,0,222
6,0,0,0,0,222
7,0,0,0,0,222
8,0,0,0,0,222
9,0,0,0,0,222
10,0,0,0,0,222
11,0,0,0,0,222
12,0,0,0,0,222
13,0,0,0,0,222
14,0,0,0,0,222
15,0,0,0,0,222
0,0,0,0,0,222
1,0,0,0,0,222
2,0,0,0,0,222
3,0,0,0,0,222
4,0,0,0,0,222
5,0,0,0,0,222
6,0,0,0,0,222
7,0,0,0,0,222
8,0,0,0,0,222
9,0,0,0,0,222
10,0,0,0,0,222
11,0,0,0,0,222
12,0,0,0,0,222
13,0,0,0,0,222
14,0,0,0,0,222
15,0,0,0,0,222
0,0,0,0,0,222
1,0,0,0,0,222
2,0,0,0,0,222
3,0,0,0,0,222
4,0,0,0,0,222
5,0,0,0,0,222
6,0,0,0,0,222
7,0,0,0,0,222
8,0,0,0,0,222
9,0,0,0,0,222
10,0,0,0,0,222
11,0,0,0,0,222
12,0,0,0,0,222
13,0,0,0,0,222
14,0,0,0,0,222
15,0,0,0,0,222
0,0,0,0,0,222
1,0,0,0,0,222
2,0,0,0,0,222
3,0,0,0,0,222
4,0,0,0,0,222
5,0,0,0,0,222
6,0,0,0,0,222
7,0,0,0,0,222
8,0,0,0,0,222
9,0,0,0,0,222
10,0,0,0,0,222
11,0,0,0,0,222
12,0,0,0,0,222
13,0,0,0,0,222
14,0,0,0,0,222
15,0,0,0,0,222
0,0,0,0,0,222
1,0,0,0,0,222
2,0,0,0,0,222
3,0,0,0,0,222
4,0,0,0,0,222
5,0,0,0,0,222
6,0,0,0,0,222
7,0,0,0,0,222
8,0,0,0,0,222
9,0,0,0,0,222
10,0,0,0,0,222
11,0,0,0,0,222
12,0,0,0,0,222
13,0,0,0,0,222
14,0,0,0,0,222
15,0,0,0,0,222
0,0,0,0,0,222
1,0,0,0,0,222
2,0,0,0,0,222
3,0,0,0,0,222
4,0,0,0,0,222
5,0,0,0,0,222
6,0,0,0,0,222
7,0,0,0,0,222
8,0,0,0,0,222
9,0,0,0,0,222
10,0,0,0,0,222
11,0,0,0,0,222
12,0,0,0,0,222
13,0,0,0,0,222
14,0,0,0,0,222
15,0,0,0,0,222
0,0,0,0,0,222
1,0,0,0,0,222
2,0,0,0,0,222
3,0,0,0,0,222
4,0,0,0,0,222
5,0,0,0,0,222
6,0,0,0,0,222
7,0,0,0,0,222
8,0,0,0,0,222
9,0,0,0,0,222
10,0,0,0,0,222
11,0,0,0,0,222
12,0,0,0,0,222
13,0,0,0,0,222
14,0,0,0,0,222
15,0,0,0,0,222
0,0,0,0,0,222
1,0,0,0,0,222
2,0,0,0,0,222
3,0,0,0,0,222
4,0,0,0,0,222
5,0,0,0,0,222
6,0,0,0,0,222
7,0,0,0,0,222
8,0,0,0,0,222
9,0,0,0,0,222
10,0,0,0,0,222
11,0,0,0,0,222
12,0,0,0,0,223
13,0,0,0,0,222
14,0,0,0,0,222
15,0,0,0,0,222
0,0,0,0,0,223
1,0,0,0,0,223
2,0,0,0,0,223
3,0,0,0,0,223
4,0,0,0,0,223
5,0,0,0,0,222
6,0,0,0,0,223
7,0,0,0,0,223
8,0,0,0,0,223
9,0,0,0,0,223
10,0,0,0,0,223
11,0,0,0,0,223
12,0,0,0,0,223
13,0,0,0,0,223
14,0,0,0,0,223
15,0,0,0,0,223
0,0,0,0,0,223
1,0,0,0,0,223
2,0,0,0,0,223
3,0,0,0,0,223
4,0,0,0,0,223
5,0,0,0,0,223
6,0,0,0,0,223
7,0,0,0,0,223
8,0,0,0,0,223
9,0,0,0,0,223
10,0,0,0,0,224
11,0,0,0,0,224
12,0,0,0,0,224
13,0,0,0,0,224
14,0,0,0,0,224
15,0,0,0,0,224
0,0,0,0,0,225
1,0,0,0,0,225
2,0,0,0,0,225
3,0,0,0,0,225
4,0,0,0,0,225
5,0,0,0,0,226
6,0,0,0,0,226
7,0,0,0,0,226
8,0,0,0,0,226
9,0,0,0,0,226
10,0,0,0,0,226
11,0,0,0,0,226
12,0,0,0,0,226
13,0,0,0,0,226
14,0,0,0,0,226
15,0,0,0,0,226
0,0,0,0,0,226
1,0,0,0,0,227
2,0,0,0,0,226
3,0,0,0,0,226
4,0,0,0,0,227
5,0,0,0,0,226
6,0,0,0,0,227
7,0,0,0,0,226
8,0,0,0,0,227
9,0,0,0,0,226
10,0,0,0,0,226
11,0,0,0,0,226
12,0,0,0,0,226
13,0,0,0,0,226
14,0,0,0,0,226
15,0,0,0,0,226
0,0,0,0,0,226
1,0,0,0,0,226
2,0,0,0,0,226
3,0,0,0,0,226
4,0,0,0,0,226
5,0,0,0,0,226
6,0,0,0,0,226
7,0,0,0,0,226
8,0,0,0,0,226
9,0,0,0,0,226
10,0,0,0,0,226
11,0,0,0,0,226
12,0,0,0,0,226
13,0,0,0,0,226
14,0,0,0,0,226
15,0,0,0,0,226
0,0,0,0,0,226
1,0,0,0,0,226
2,0,0,0,0,226
3,0,0,0,0,225
4,0,0,0,0,226
5,0,0,0,0,225
6,0,0,0,0,225
7,0,0,0,0,225
8,0,0,0,0,225
9,0,0,0,0,225
10,0,0,0,0,225
11,0,0,0,0,225
12,0,0,0,0,225
13,0,0,0,0,225
14,0,0,0,0,225
15,0,0,0,0,225
0,0,0,0,0,225
1,0,0,0,0,225
2,0,0,0,0,225
3,0,0,0,0,225
4,0,0,0,0,225
5,0,0,0,0,225
6,0,0,0,0,225
7,0,0,0,0,225
8,0,0,0,0,225
9,0,0,0,0,225
10,0,0,0,0,225
11,0,0,0,0,225
12,0,0,0,0,225
13,0,0,0,0,225
14,0,0,0,0,225
15,0,0,0,0,225
0,0,0,0,0,225
1,0,0,0,0,225
2,0,0,0,0,225
3,0,0,0,0,225
4,0,0,0,0,225
5,0,0,0,0,225
6,0,0,0,0,225
7,0,0,0,0,225
8,0,0,0,0,225
9,0,0,0,0,225
10,0,0,0,0,225
11,0,0,0,0,224
12,0,0,0,0,225
13,0,0,0,0,224
14,0,0,0,0,224
15,0,0,0,0,224
0,0,0,0,0,224
1,0,0,0,0,224
2,0,0,0,0,224
3,0,0,0,0,224
4,0,0,0,0,224
5,0,0,0,0,224
6,0,0,0,0,224
7,0,0,0,0,224
8,0,0,0,0,224
9,0,0,0,0,224
10,0,0,0,0,224
11,0,0,0,0,224
12,0,0,0,0,224
13,0,0,0,0,224
14,0,0,0,0,224
15,0,0,0,0,224
0,0,0,0,0,224
1,0,0,0,0,224
2,0,0,0,0,224
3,0,0,0,0,224
4,0,0,0,0,224
5,0,0,0,0,224
6,0,0,0,0,224
7,0,0,0,0,224
8,0,0,0,0,224
9,0,0,0,0,224
10,0,0,0,0,224
11,0,0,0,0,224
12,0,0,0,0,224
13,0,0,0,0,224
14,0,0,0,0,224
15,0,0,0,0,224
0,0,0,0,0,224
1,0,0,0,0,224
2,0,0,0,0,224
3,0,0,0,0,224
4,0,0,0,0,224
5,0,0,0,0,224
6,0,0,0,0,224
7,0,0,0,0,224
8,0,0,0,0,224
9,0,0,0,0,224
10,0,0,0,0,224
11,0,0,0,0,224
12,0,0,0,0,224
13,0,0,0,0,224
14,0,0,0,0,224
15,0,0,0,0,224
0,0,0,0,0,224
1,0,0,0,0,224
2,0,0,0,0,224
3,0,0,0,0,224
4,0,0,0,0,224
5,0,0,0,0,224
6,0,0,0,0,224
7,0,0,0,0,224
8,0,0,0,0,224
9,0,0,0,0,224
10,0,0,0,0,224
11,0,0,0,0,224
12,0,0,0,0,224
13,0,0,0,0,224
14,0,0,0,0,224
15,0,0,0,0,224
0,0,0,0,0,224
1,0,0,0,0,224
2,0,0,0,0,224
3,0,0,0,0,224
4,0,0,0,0,224
5,0,0,0,0,223
6,0,0,0,0,223
7,0,0,0,0,223
8,0,0,0,0,223
9,0,0,0,0,223
10,0,0,0,0,223
11,0,0,0,0,223
12,0,0,0,0,223
13,0,0,0,0,223
14,0,0,0,0,223
15,0,0,0,0,223
0,0,0,0,0,223
1,0,0,0,0,223
2,0,0,0,0,223
3,0,0,0,0,223
4,0,0,0,0,223
5,0,0,0,0,223
6,0,0,0,0,223
7,0,0,0,0,223
8,0,0,0,0,223
9,0,0,0,0,223
10,0,0,0,0,223
11,0,0,0,0,223
12,0,0,0,0,223
13,0,0,0,0,223
14,0,0,0,0,223
15,0,0,0,0,223
0,0,0,0,0,223
1,0,0,0,0,223
2,0,0,0,0,223
3,0,0,0,0,223
4,0,0,0,0,223
5,0,0,0,0,223
6,0,0,0,0,223
7,0,0,0,0,224
8,0,0,0,0,224
9,0,0,0,0,224
10,0,0,0,0,224
11,0,0,0,0,224
12,0,0,0,0,224
13,0,0,0,0,224
14,0,0,0,0,224
15,0,0,0,0,225
0,0,0,0,0,225
1,0,0,0,0,225
2,0,0,0,0,225
3,0,0,0,0,225
4,0,0,0,0,225
5,0,0,0,0,225
6,0,0,0,0,225
7,0,0,0,0,225
8,0,0,0,0,225
9,0,0,0,0,225
10,0,0,0,0,225
11,0,0,0,0,224
12,0,0,0,0,224
13,0,0,0,0,224
14,0,0,0,0,224
15,0,0,0,0,224
0,0,0,0,0,224
1,0,0,0,0,224
2,0,0,0,0,223
3,0,0,0,0,223
4,0,0,0,0,223
5,0,0,0,0,223
6,0,0,0,0,222
7,0,0,0,0,222
8,0,0,0,0,222
9,0,0,0,0,221
10,0,0,0,0,221
11,0,0,0,0,221
12,0,0,0,0,221
13,0,0,0,0,220
14,0,0,0,0,220
15,0,0,0,0,220
0,0,0,0,0,219
1,0,0,0,0,219
2,0,0,0,0,218
3,0,0,0,0,218
4,0,0,0,0,217
5,0,0,0,0,217
6,0,0,0,0,216
7,0,0,0,0,216
8,0,0,0,0,216
9,0,0,0,0,216
10,0,0,0,0,216
11,0,0,0,0,216
12,0,0,0,0,216
13,0,0,0,0,216
14,0,0,0,0,216
15,0,0,0,0,216
0,0,0,0,0,216
1,0,0,0,0,216
2,0,0,0,0,215
3,0,0,0,0,215
4,0,0,0,0,215
5,0,0,0,0,214
6,0,0,0,0,214
7,0,0,0,0,214
8,0,0,0,0,214
9,0,0,0,0,213
10,0,0,0,0,213
11,0,0,0,0,212
12,0,0,0,0,212
13,0,0,0,0,211
14,0,0,0,0,211
15,0,0,0,0,211
0,0,0,0,0,210
1,0,0,0,0,209
2,0,0,0,0,209
3,0,0,0,0,209
4,0,0,0,0,209
5,0,0,0,0,208
6,0,0,0,0,208
7,0,0,0,0,208
8,0,0,0,0,208
9,0,0,0,0,208
10,0,0,0,0,207
11,0,0,0,0,207
12,0,0,0,0,207
13,0,0,0,0,207
14,0,0,0,0,207
15,0,0,0,0,207
0,0,0,0,0,206
1,0,0,0,0,206
2,0,0,0,0,206
3,0,0,0,0,206
4,0,0,0,0,205
5,0,0,0,0,205
6,0,0,0,0,204
7,0,0,0,0,204
8,0,0,0,0,204
9,0,0,0,0,203
10,0,0,0,0,203
11,0,0,0,0,202
12,0,0,0,0,202
13,0,0,0,0,201
14,0,0,0,0,201
15,0,0,0,0,201
0,0,0,0,0,200
1,0,0,0,0,200
2,0,0,0,0,199
3,0,0,0,0,199
4,0,0,0,0,199
5,0,0,0,0,199
6,0,0,0,0,199
7,0,0,0,0,198
8,0,0,0,0,198
9,0,0,0,0,198
10,0,0,0,0,198
11,0,0,0,0,198
12,0,0,0,0,198
13,0,0,0,0,198
14,0,0,0,0,197
15,0,0,0,0,197
0,0,0,0,0,197
1,0,0,0,0,197
2,0,0,0,0,197
3,0,0,0,0,196
4,0,0,0,0,196
5,0,0,0,0,196
6,0,0,0,0,196
7,0,0,0,0,196
8,0,0,0,0,196
9,0,0,0,0,195
10,0,0,0,0,195
11,0,0,0,0,195
12,0,0,0,0,195
13,0,0,0,0,195
14,0,0,0,0,195
15,0,0,0,0,195
0,0,0,0,0,195
1,0,0,0,0,195
2,0,0,0,0,195
3,0,0,0,0,195
4,0,0,0,0,195
5,0,0,0,0,195
6,0,0,0,0,194
7,0,0,0,0,194
8,0,0,0,0,194
9,0,0,0,0,194
10,0,0,0,0,194
11,0,0,0,0,194
12,0,0,0,0,194
13,0,0,0,0,194
14,0,0,0,0,194
15,0,0,0,0,194
0,0,0,0,0,193
1,0,0,0,0,193
2,0,0,0,0,193
3,0,0,0,0,193
4,0,0,0,0,193
5,0,0,0,0,193
6,0,0,0,0,193
7,0,0,0,0,193
8,0,0,0,0,193
9,0,0,0,0,193
10,0,0,0,0,193
11,0,0,0,0,193
12,0,0,0,0,193
13,0,0,0,0,193
14,0,0,0,0,193
15,0,0,0,0,193
0,0,0,0,0,193
1,0,0,0,0,193
2,0,0,0,0,193
3,0,0,0,0,193
4,0,0,0,0,193
5,0,0,0,0,193
6,0,0,0,0,193
7,0,0,0,0,193
8,0,0,0,0,193
9,0,0,0,0,193
10,0,0,0,0,192
11,0,0,0,0,193
12,0,0,0,0,192
13,0,0,0,0,192
14,0,0,0,0,192
15,0,0,0,0,192
0,0,0,0,0,192
1,0,0,0,0,192
2,0,0,0,0,192
3,0,0,0,0,192
4,0,0,0,0,192
5,0,0,0,0,192
6,0,0,0,0,192
7,0,0,0,0,192
8,0,0,0,0,192
9,0,0,0,0,192
10,0,0,0,0,192
11,0,0,0,0,192
12,0,0,0,0,192
13,0,0,0,0,192
14,0,0,0,0,192
15,0,0,0,0,192
0,0,0,0,0,192
1,0,0,0,0,192
2,0,0,0,0,192
3,0,0,0,0,192
4,0,0,0,0,192
5,0,0,0,0,192
6,0,0,0,0,192
7,0,0,0,0,192
8,0,0,0,0,192
9,0,0,0,0,192
10,0,0,0,0,192
11,0,0,0,0,192
12,0,0,0,0,192
13,0,0,0,0,192
14,0,0,0,0,191
15,0,0,0,0,191
0,0,0,0,0,192
1,0,0,0,0,192
2,0,0,0,0,192
3,0,0,0,0,192
4,0,0,0,0,192
5,0,0,0,0,192
6,0,0,0,0,192
7,0,0,0,0,192
8,0,0,0,0,192
9,0,0,0,0,192
10,0,0,0,0,192
11,0,0,0,0,192
12,0,0,0,0,192
13,0,0,0,0,192
14,0,0,0,0,192
15,0,0,0,0,192
0,0,0,0,0,192
1,0,0,0,0,192
2,0,0,0,0,192
3,0,0,0,0,192
4,0,0,0,0,192
5,0,0,0,0,192
6,0,0,0,0,192
7,0,0,0,0,192
8,0,0,0,0,192
9,0,0,0,0,192
10,0,0,0,0,192
11,0,0,0,0,192
12,0,0,0,0,192
13,0,0,0,0,192
14,0,0,0,0,192
15,0,0,0,0,192
0,0,0,0,0,192
1,0,0,0,0,192
2,0,0,0,0,192
3,0,0,0,0,192
4,0,0,0,0,192
5,0,0,0,0,192
6,0,0,0,0,192
7,0,0,0,0,192
8,0,0,0,0,192
9,0,0,0,0,192
10,0,0,0,0,192
11,0,0,0,0,192
12,0,0,0,0,192
13,0,0,0,0,192
14,0,0,0,0,192
15,0,0,0,0,192
0,0,0,0,0,192
1,0,0,0,0,192
2,0,0,0,0,192
3,0,0,0,0,192
4,0,0,0,0,192
5,0,0,0,0,192
6,0,0,0,0,192
7,0,0,0,0,192
8,0,0,0,0,192
9,0,0,0,0,192
10,0,0,0,0,192
11,0,0,0,0,192
12,0,0,0,0,192
13,0,0,0,0,192
14,0,0,0,0,192
15,0,0,0,0,192
0,0,0,0,0,192
1,0,0,0,0,192
2,0,0,0,0,192
3,0,0,0,0,192
4,0,0,0,0,192
5,0,0,0,0,192
6,0,0,0,0,192
7,0,0,0,0,192
8,0,0,0,0,192
9,0,0,0,0,192
10,0,0,0,0,192
11,0,0,0,0,192
12,0,0,0,0,193
13,0,0,0,0,193
14,0,0,0,0,193
15,0,0,0,0,193
0,0,0,0,0,193
1,0,0,0,0,193
2,0,0,0,0,194
3,0,0,0,0,194
4,0,0,0,0,194
5,0,0,0,0,194
6,0,0,0,0,195
7,0,0,0,0,195
8,0,0,0,0,195
9,0,0,0,0,195
10,0,0,0,0,196
11,0,0,0,0,196
12,0,0,0,0,197
13,0,0,0,0,198
14,0,0,0,0,198
15,0,0,0,0,199
0,0,0,0,0,199
1,0,0,0,0,200
2,0,0,0,0,200
3,0,0,0,0,201
4,0,0,0,0,201
5,0,0,0,0,202
6,0,0,0,0,202
7,0,0,0,0,203
8,0,0,0,0,203
9,0,0,0,0,203
10,0,0,0,0,203
11,0,0,0,0,204
12,0,0,0,0,204
13,0,0,0,0,204
14,0,0,0,0,204
15,0,0,0,0,204
0,0,0,0,0,205
1,0,0,0,0,205
2,0,0,0,0,205
3,0,0,0,0,205
4,0,0,0,0,205
5,0,0,0,0,205
6,0,0,0,0,206
7,0,0,0,0,206
8,0,0,0,0,207
9,0,0,0,0,208
10,0,0,0,0,209
11,0,0,0,0,210
12,0,0,0,0,211
13,0,0,0,0,212
14,0,0,0,0,212
15,0,0,0,0,213
0,0,0,0,0,214
1,0,0,0,0,215
2,0,0,0,0,215
3,0,0,0,0,215
4,0,0,0,0,216
5,0,0,0,0,216
6,0,0,0,0,216
7,0,0,0,0,216
8,0,0,0,0,216
9,0,0,0,0,216
10,0,0,0,0,217
11,0,0,0,0,217
12,0,0,0,0,217
13,0,0,0,0,217
14,0,0,0,0,217
15,0,0,0,0,218
0,0,0,0,0,218
1,0,0,0,0,218
2,0,0,0,0,218
3,0,0,0,0,218
4,0,0,0,0,218
5,0,0,0,0,218
6,0,0,0,0,218
7,0,0,0,0,219
8,0,0,0,0,219
9,0,0,0,0,219
10,0,0,0,0,219
11,0,0,0,0,219
12,0,0,0,0,219
13,0,0,0,0,219
14,0,0,0,0,219
15,0,0,0,0,219
0,0,0,0,0,219
1,0,0,0,0,219
2,0,0,0,0,219
3,0,0,0,0,219
4,0,0,0,0,219
5,0,0,0,0,219
6,0,0,0,0,219
7,0,0,0,0,219
8,0,0,0,0,219
9,0,0,0,0,219
10,0,0,0,0,218
11,0,0,0,0,218
12,0,0,0,0,218
13,0,0,0,0,218
14,0,0,0,0,218
15,0,0,0,0,218
0,0,0,0,0,218
1,0,0,0,0,218
2,0,0,0,0,218
3,0,0,0,0,218
4,0,0,0,0,218
5,0,0,0,0,218
6,0,0,0,0,218
7,0,0,0,0,218
8,0,0,0,0,218
9,0,0,0,0,218
10,0,0,0,0,217
11,0,0,0,0,217
12,0,0,0,0,217
13,0,0,0,0,217
14,0,0,0,0,217
15,0,0,0,0,217
0,0,0,0,0,217
1,0,0,0,0,217
2,0,0,0,0,217
3,0,0,0,0,217
4,0,0,0,0,217
5,0,0,0,0,217
6,0,0,0,0,217
7,0,0,0,0,217
8,0,0,0,0,217
9,0,0,0,0,217
10,0,0,0,0,217
11,0,0,0,0,217
12,0,0,0,0,217
13,0,0,0,0,217
14,0,0,0,0,218
15,0,0,0,0,218
0,0,0,0,0,218
1,0,0,0,0,218
2,0,0,0,0,218
3,0,0,0,0,218
4,0,0,0,0,218
5,0,0,0,0,218
6,0,0,0,0,218
7,0,0,0,0,218
8,0,0,0,0,218
9,0,0,0,0,217
10,0,0,0,0,217
11,0,0,0,0,217
12,0,0,0,0,217
13,0,0,0,0,217
14,0,0,0,0,217
15,0,0,0,0,217
0,0,0,0,0,217
1,0,0,0,0,217
2,0,0,0,0,217
3,0,0,0,0,217
4,0,0,0,0,217
5,0,0,0,0,217
6,0,0,0,0,217
7,0,0,0,0,217
8,0,0,0,0,217
9,0,0,0,0,217
10,0,0,0,0,216
11,0,0,0,0,216
12,0,0,0,0,216
13,0,0,0,0,216
14,0,0,0,0,216
15,0,0,0,0,216
0,0,0,0,0,216
1,0,0,0,0,216
2,0,0,0,0,215
3,0,0,0,0,215
4,0,0,0,0,215
5,0,0,0,0,215
6,0,0,0,0,215
7,0,0,0,0,215
8,0,0,0,0,215
9,0,0,0,0,214
10,0,0,0,0,214
11,0,0,0,0,215
12,0,0,0,0,215
13,0,0,0,0,215
14,0,0,0,0,215
15,0,0,0,0,216
0,0,0,0,0,216
1,0,0,0,0,216
2,0,0,0,0,216
3,0,0,0,0,216
4,0,0,0,0,216
5,0,0,0,0,216
6,0,0,0,0,216
7,0,0,0,0,216
8,0,0,0,0,216
9,0,0,0,0,216
10,0,0,0,0,216
11,0,0,0,0,216
12,0,0,0,0,216
13,0,0,0,0,216
14,0,0,0,0,216
15,0,0,0,0,216
0,0,0,0,0,216
1,0,0,0,0,216
2,0,0,0,0,215
3,0,0,0,0,215
4,0,0,0,0,215
5,0,0,0,0,215
6,0,0,0,0,215
7,0,0,0,0,215
8,0,0,0,0,215
9,0,0,0,0,215
10,0,0,0,0,215
11,0,0,0,0,215
12,0,0,0,0,215
13,0,0,0,0,215
14,0,0,0,0,215
15,0,0,0,0,215
0,0,0,0,0,215
1,0,0,0,0,215
2,0,0,0,0,215
3,0,0,0,0,214
4,0,0,0,0,214
5,0,0,0,0,214
6,0,0,0,0,214
7,0,0,0,0,214
8,0,0,0,0,214
9,0,0,0,0,214
10,0,0,0,0,214
11,0,0,0,0,214
12,0,0,0,0,214
13,0,0,0,0,214
14,0,0,0,0,214
15,0,0,0,0,214
0,0,0,0,0,214
1,0,0,0,0,214
2,0,0,0,0,213
3,0,0,0,0,213
4,0,0,0,0,213
5,0,0,0,0,213
6,0,0,0,0,213
7,0,0,0,0,213
8,0,0,0,0,213
9,0,0,0,0,213
10,0,0,0,0,212
11,0,0,0,0,212
12,0,0,0,0,212
13,0,0,0,0,212
14,0,0,0,0,212
15,0,0,0,0,211
0,0,0,0,0,211
1,0,0,0,0,211
2,0,0,0,0,211
3,0,0,0,0,211
4,0,0,0,0,211
5,0,0,0,0,211
6,0,0,0,0,211
7,0,0,0,0,211
8,0,0,0,0,211
9,0,0,0,0,210
10,0,0,0,0,210
11,0,0,0,0,210
12,0,0,0,0,210
13,0,0,0,0,210
14,0,0,0,0,210
15,0,0,0,0,210
0,0,0,0,0,210
1,0,0,0,0,210
2,0,0,0,0,209
3,0,0,0,0,209
4,0,0,0,0,209
5,0,0,0,0,209
6,0,0,0,0,209
7,0,0,0,0,209
8,0,0,0,0,209
9,0,0,0,0,209
10,0,0,0,0,209
11,0,0,0,0,209
12,0,0,0,0,209
13,0,0,0,0,209
14,0,0,0,0,209
15,0,0,0,0,209
0,0,0,0,0,209
1,0,0,0,0,209
2,0,0,0,0,209
3,0,0,0,0,209
4,0,0,0,0,209
5,0,0,0,0,209
6,0,0,0,0,209
7,0,0,0,0,209
8,0,0,0,0,209
9,0,0,0,0,209
10,0,0,0,0,209
11,0,0,0,0,209
12,0,0,0,0,208
13,0,0,0,0,208
14,0,0,0,0,208
15,0,0,0,0,208
0,0,0,0,0,208
1,0,0,0,0,208
2,0,0,0,0,208
3,0,0,0,0,208
4,0,0,0,0,208
5,0,0,0,0,208
6,0,0,0,0,208
7,0,0,0,0,208
8,0,0,0,0,208
9,0,0,0,0,207
10,0,0,0,0,207
11,0,0,0,0,207
12,0,0,0,0,207
13,0,0,0,0,207
14,0,0,0,0,207
15,0,0,0,0,207
0,0,0,0,0,207
1,0,0,0,0,207
2,0,0,0,0,206
3,0,0,0,0,206
4,0,0,0,0,206
5,0,0,0,0,206
6,0,0,0,0,206
7,0,0,0,0,206
8,0,0,0,0,206
9,0,0,0,0,206
10,0,0,0,0,206
11,0,0,0,0,206
12,0,0,0,0,206
13,0,0,0,0,206
14,0,0,0,0,205
15,0,0,0,0,205
0,0,0,0,0,205
1,0,0,0,0,205
2,0,0,0,0,205
3,0,0,0,0,205
4,0,0,0,0,205
5,0,0,0,0,205
6,0,0,0,0,204
7,0,0,0,0,205
8,0,0,0,0,204
9,0,0,0,0,204
10,0,0,0,0,204
11,0,0,0,0,204
12,0,0,0,0,204
13,0,0,0,0,204
14,0,0,0,0,204
15,0,0,0,0,204
0,0,0,0,0,204
1,0,0,0,0,204
2,0,0,0,0,203
3,0,0,0,0,203
4,0,0,0,0,203
5,0,0,0,0,203
6,0,0,0,0,203
7,0,0,0,0,203
8,0,0,0,0,203
9,0,0,0,0,203
10,0,0,0,0,202
11,0,0,0,0,202
12,0,0,0,0,202
13,0,0,0,0,202
14,0,0,0,0,202
15,0,0,0,0,202
0,0,0,0,0,201
1,0,0,0,0,201
2,0,0,0,0,201
3,0,0,0,0,201
4,0,0,0,0,201
5,0,0,0,0,200
6,0,0,0,0,200
7,0,0,0,0,200
8,0,0,0,0,200
9,0,0,0,0,200
10,0,0,0,0,199
11,0,0,0,0,199
12,0,0,0,0,199
13,0,0,0,0,199
14,0,0,0,0,199
15,0,0,0,0,199
0,0,0,0,0,198
1,0,0,0,0,198
2,0,0,0,0,198
3,0,0,0,0,198
4,0,0,0,0,198
5,0,0,0,0,198
6,0,0,0,0,198
7,0,0,0,0,198
8,0,0,0,0,198
9,0,0,0,0,197
10,0,0,0,0,197
11,0,0,0,0,197
12,0,0,0,0,197
13,0,0,0,0,197
14,0,0,0,0,197
15,0,0,0,0,197
0,0,0,0,0,197
1,0,0,0,0,197
2,0,0,0,0,196
3,0,0,0,0,196
4,0,0,0,0,196
5,0,0,0,0,196
6,0,0,0,0,196
7,0,0,0,0,196
8,0,0,0,0,196
9,0,0,0,0,196
10,0,0,0,0,196
11,0,0,0,0,196
12,0,0,0,0,195
13,0,0,0,0,195
14,0,0,0,0,195
15,0,0,0,0,195
0,0,0,0,0,195
1,0,0,0,0,195
2,0,0,0,0,195
3,0,0,0,0,195
4,0,0,0,0,195
5,0,0,0,0,195
6,0,0,0,0,195
7,0,0,0,0,195
8,0,0,0,0,195
9,0,0,0,0,195
10,0,0,0,0,195
11,0,0,0,0,195
12,0,0,0,0,195
13,0,0,0,0,195
14,0,0,0,0,195
15,0,0,0,0,195
0,0,0,0,0,195
1,0,0,0,0,194
2,0,0,0,0,194
3,0,0,0,0,194
4,0,0,0,0,194
5,0,0,0,0,194
6,0,0,0,0,194
7,0,0,0,0,194
8,0,0,0,0,194
9,0,0,0,0,194
10,0,0,0,0,194
11,0,0,0,0,194
12,0,0,0,0,194
13,0,0,0,0,194
14,0,0,0,0,193
15,0,0,0,0,194
0,0,0,0,0,194
1,0,0,0,0,193
2,0,0,0,0,193
3,0,0,0,0,193
4,0,0,0,0,193
5,0,0,0,0,193
6,0,0,0,0,193
7,0,0,0,0,193
8,0,0,0,0,193
9,0,0,0,0,193
10,0,0,0,0,193
11,0,0,0,0,193
12,0,0,0,0,193
13,0,0,0,0,193
14,0,0,0,0,193
15,0,0,0,0,193
0,0,0,0,0,193
1,0,0,0,0,193
2,0,0,0,0,193
3,0,0,0,0,193
4,0,0,0,0,193
5,0,0,0,0,192
6,0,0,0,0,192
7,0,0,0,0,192
8,0,0,0,0,192
9,0,0,0,0,192
10,0,0,0,0,192
11,0,0,0,0,192
12,0,0,0,0,192
13,0,0,0,0,192
14,0,0,0,0,192
15,0,0,0,0,192
0,0,0,0,0,192
1,0,0,0,0,192
2,0,0,0,0,192
3,0,0,0,0,192
4,0,0,0,0,192
5,0,0,0,0,192
6,0,0,0,0,192
7,0,0,0,0,192
8,0,0,0,0,192
9,0,0,0,0,192
10,0,0,0,0,192
11,0,0,0,0,192
12,0,0,0,0,192
13,0,0,0,0,192
14,0,0,0,0,192
15,0,0,0,0,192
0,0,0,0,0,192
1,0,0,0,0,192
2,0,0,0,0,192
3,0,0,0,0,192
4,0,0,0,0,192
5,0,0,0,0,192
6,0,0,0,0,192
7,0,0,0,0,192
8,0,0,0,0,192
9,0,0,0,0,193
10,0,0,0,0,192
11,0,0,0,0,193
12,0,0,0,0,193
13,0,0,0,0,193
14,0,0,0,0,193
15,0,0,0,0,193
0,0,0,0,0,193
1,0,0,0,0,193
2,0,0,0,0,193
3,0,0,0,0,193
4,0,0,0,0,193
5,0,0,0,0,193
6,0,0,0,0,193
7,0,0,0,0,193
8,0,0,0,0,193
9,0,0,0,0,193
10,0,0,0,0,193
11,0,0,0,0,193
12,0,0,0,0,193
13,0,0,0,0,193
14,0,0,0,0,193
15,0,0,0,0,193
0,0,0,0,0,193
1,0,0,0,0,193
2,0,0,0,0,193
3,0,0,0,0,193
4,0,0,0,0,193
5,0,0,0,0,193
6,0,0,0,0,193
7,0,0,0,0,193
8,0,0,0,0,193
9,0,0,0,0,193
10,0,0,0,0,193
11,0,0,0,0,193
12,0,0,0,0,193
13,0,0,0,0,193
14,0,0,0,0,193
15,0,0,0,0,193
0,0,0,0,0,193
1,0,0,0,0,193
2,0,0,0,0,193
3,0,0,0,0,193
4,0,0,0,0,193
5,0,0,0,0,193
6,0,0,0,0,193
7,0,0,0,0,193
8,0,0,0,0,193
9,0,0,0,0,193
10,0,0,0,0,193
11,0,0,0,0,193
12,0,0,0,0,193
13,0,0,0,0,193
14,0,0,0,0,193
15,0,0,0,0,193
0,0,0,0,0,193
1,0,0,0,0,193
2,0,0,0,0,193
3,0,0,0,0,193
4,0,0,0,0,193
5,0,0,0,0,193
6,0,0,0,0,193
7,0,0,0,0,193
8,0,0,0,0,193
9,0,0,0,0,193
10,0,0,0,0,193
11,0,0,0,0,193
12,0,0,0,0,193
13,0,0,0,0,193
14,0,0,0,0,192
15,0,0,0,0,193
0,0,0,0,0,193
1,0,0,0,0,193
2,0,0,0,0,192
3,0,0,0,0,192
4,0,0,0,0,193
5,0,0,0,0,193
6,0,0,0,0,192
7,0,0,0,0,192
8,0,0,0,0,192
9,0,0,0,0,192
10,0,0,0,0,192
11,0,0,0,0,192
12,0,0,0,0,192
13,0,0,0,0,192
14,0,0,0,0,192
15,0,0,0,0,192
0,0,0,0,0,192
1,0,0,0,0,193
2,0,0,0,0,192
3,0,0,0,0,192
4,0,0,0,0,192
5,0,0,0,0,192
6,0,0,0,0,192
7,0,0,0,0,192
8,0,0,0,0,192
9,0,0,0,0,192
10,0,0,0,0,192
11,0,0,0,0,192
12,0,0,0,0,192
13,0,0,0,0,192
14,0,0,0,0,192
15,0,0,0,0,192
0,0,0,0,0,192
1,0,0,0,0,192
2,0,0,0,0,192
3,0,0,0,0,192
4,0,0,0,0,192
5,0,0,0,0,192
6,0,0,0,0,192
7,0,0,0,0,192
8,0,0,0,0,192
9,0,0,0,0,192
10,0,0,0,0,192
11,0,0,0,0,192
12,0,0,0,0,192
13,0,0,0,0,192
14,0,0,0,0,192
15,0,0,0,0,192
0,0,0,0,0,192
1,0,0,0,0,192
2,0,0,0,0,192
3,0,0,0,0,192
4,0,0,0,0,192
5,0,0,0,0,192
6,0,0,0,0,192
7,0,0,0,0,192
8,0,0,0,0,192
9,0,0,0,0,192
10,0,0,0,0,192
11,0,0,0,0,192
12,0,0,0,0,192
13,0,0,0,0,192
14,0,0,0,0,192
15,0,0,0,0,192
0,0,0,0,0,192
1,0,0,0,0,192
2,0,0,0,0,192
3,0,0,0,0,192
4,0,0,0,0,192
5,0,0,0,0,192
6,0,0,0,0,192
7,0,0,0,0,192
8,0,0,0,0,192
9,0,0,0,0,192
10,0,0,0,0,192
11,0,0,0,0,192
12,0,0,0,0,192
13,0,0,0,0,192
14,0,0,0,0,192
15,0,0,0,0,192
0,0,0,0,0,192
1,0,0,0,0,192
2,0,0,0,0,192
3,0,0,0,0,192
4,0,0,0,0,192
5,0,0,0,0,192
6,0,0,0,0,192
7,0,0,0,0,192
8,0,0,0,0,192
9,0,0,0,0,192
10,0,0,0,0,192
11,0,0,0,0,192
12,0,0,0,0,192
13,0,0,0,0,192
14,0,0,0,0,192
15,0,0,0,0,192
0,0,0,0,0,192
1,0,0,0,0,192
2,0,0,0,0,192
3,0,0,0,0,192
4,0,0,0,0,192
5,0,0,0,0,192
6,0,0,0,0,192
7,0,0,0,0,192
8,0,0,0,0,192
9,0,0,0,0,192
10,0,0,0,0,192
11,0,0,0,0,192
12,0,0,0,0,192
13,0,0,0,0,192
14,0,0,0,0,192
15,0,0,0,0,192
0,0,0,0,0,192
1,0,0,0,0,192
2,0,0,0,0,192
3,0,0,0,0,192
4,0,0,0,0,192
5,0,0,0,0,192
6,0,0,0,0,192
7,0,0,0,0,192
8,0,0,0,0,192
9,0,0,0,0,192
10,0,0,0,0,192
11,0,0,0,0,192
12,0,0,0,0,192
13,0,0,0,0,192
14,0,0,0,0,192
15,0,0,0,0,192
0,0,0,0,0,192
1,0,0,0,0,192
2,0,0,0,0,191
3,0,0,0,0,192
4,0,0,0,0,192
5,0,0,0,0,192
6,0,0,0,0,191
7,0,0,0,0,191
8,0,0,0,0,191
9,0,0,0,0,191
10,0,0,0,0,191
11,0,0,0,0,191
12,0,0,0,0,191
13,0,0,0,0,191
14,0,0,0,0,191
15,0,0,0,0,191
0,0,0,0,0,191
1,0,0,0,0,191
2,0,0,0,0,190
3,0,0,0,0,191
4,0,0,0,0,191
5,0,0,0,0,191
6,0,0,0,0,191
7,0,0,0,0,191
8,0,0,0,0,191
9,0,0,0,0,191
10,0,0,0,0,191
11,0,0,0,0,191
12,0,0,0,0,191
13,0,0,0,0,191
14,0,0,0,0,191
15,0,0,0,0,191
0,0,0,0,0,191
1,0,0,0,0,191
2,0,0,0,0,191
3,0,0,0,0,191
4,0,0,0,0,191
5,0,0,0,0,191
6,0,0,0,0,191
7,0,0,0,0,191
8,0,0,0,0,191
9,0,0,0,0,191
10,0,0,0,0,191
11,0,0,0,0,191
12,0,0,0,0,191
13,0,0,0,0,191
14,0,0,0,0,191
15,0,0,0,0,191
0,0,0,0,0,191
1,0,0,0,0,191
2,0,0,0,0,191
3,0,0,0,0,191
4,0,0,0,0,191
5,0,0,0,0,191
6,0,0,0,0,190
7,0,0,0,0,191
8,0,0,0,0,190
9,0,0,0,0,190
10,0,0,0,0,190
11,0,0,0,0,190
12,0,0,0,0,190
13,0,0,0,0,190
14,0,0,0,0,190
15,0,0,0,0,190
0,0,0,0,0,190
1,0,0,0,0,190
2,0,0,0,0,190
3,0,0,0,0,190
4,0,0,0,0,190
5,0,0,0,0,190
6,0,0,0,0,190
7,0,0,0,0,190
8,0,0,0,0,190
9,0,0,0,0,190
10,0,0,0,0,190
11,0,0,0,0,190
12,0,0,0,0,190
13,0,0,0,0,190
14,0,0,0,0,190
15,0,0,0,0,190
0,0,0,0,0,190
1,0,0,0,0,190
2,0,0,0,0,190
3,0,0,0,0,190
4,0,0,0,0,190
5,0,0,0,0,190
6,0,0,0,0,190
7,0,0,0,0,190
8,0,0,0,0,190
9,0,0,0,0,190
10,0,0,0,0,190
11,0,0,0,0,190
12,0,0,0,0,190
13,0,0,0,0,190
14,0,0,0,0,190
15,0,0,0,0,190
0,0,0,0,0,190
1,0,0,0,0,190
2,0,0,0,0,190
3,0,0,0,0,190
4,0,0,0,0,190
5,0,0,0,0,190
6,0,0,0,0,190
7,0,0,0,0,190
8,0,0,0,0,190
9,0,0,0,0,190
10,0,0,0,0,190
11,0,0,0,0,190
12,0,0,0,0,190
13,0,0,0,0,190
14,0,0,0,0,190
15,0,0,0,0,190
0,0,0,0,0,190
1,0,0,0,0,190
2,0,0,0,0,190
3,0,0,0,0,190
4,0,0,0,0,190
5,0,0,0,0,190
6,0,0,0,0,190
7,0,0,0,0,190
8,0,0,0,0,190
9,0,0,0,0,190
10,0,0,0,0,190
11,0,0,0,0,190
12,0,0,0,0,190
13,0,0,0,0,190
14,0,0,0,0,190
15,0,0,0,0,190
0,0,0,0,0,190
1,0,0,0,0,190
2,0,0,0,0,190
3,0,0,0,0,190
4,0,0,0,0,190
5,0,0,0,0,190
6,0,0,0,0,190
7,0,0,0,0,190
8,0,0,0,0,190
9,0,0,0,0,190
10,0,0,0,0,190
11,0,0,0,0,190
12,0,0,0,0,190
13,0,0,0,0,191
14,0,0,0,0,190
15,0,0,0,0,191
0,0,0,0,0,191
1,0,0,0,0,191
2,0,0,0,0,190
3,0,0,0,0,191
4,0,0,0,0,191
5,0,0,0,0,191
6,0,0,0,0,191
7,0,0,0,0,191
8,0,0,0,0,191
9,0,0,0,0,191
10,0,0,0,0,191
11,0,0,0,0,191
12,0,0,0,0,191
13,0,0,0,0,191
14,0,0,0,0,191
15,0,0,0,0,191
0,0,0,0,0,191
1,0,0,0,0,191
2,0,0,0,0,191
3,0,0,0,0,191
4,0,0,0,0,191
5,0,0,0,0,191
6,0,0,0,0,191
7,0,0,0,0,191
8,0,0,0,0,191
9,0,0,0,0,191
10,0,0,0,0,191
11,0,0,0,0,191
12,0,0,0,0,191
13,0,0,0,0,192
14,0,0,0,0,191
15,0,0,0,0,192
0,0,0,0,0,192
1,0,0,0,0,192
2,0,0,0,0,192
3,0,0,0,0,192
4,0,0,0,0,192
5,0,0,0,0,192
6,0,0,0,0,192
7,0,0,0,0,192
8,0,0,0,0,192
9,0,0,0,0,192
10,0,0,0,0,192
11,0,0,0,0,192
12,0,0,0,0,192
13,0,0,0,0,192
14,0,0,0,0,192
15,0,0,0,0,192
0,0,0,0,0,192
1,0,0,0,0,193
2,0,0,0,0,193
3,0,0,0,0,193
4,0,0,0,0,193
5,0,0,0,0,193
6,0,0,0,0,193
7,0,0,0,0,193
8,0,0,0,0,193
9,0,0,0,0,193
10,0,0,0,0,193
11,0,0,0,0,193
12,0,0,0,0,193
13,0,0,0,0,193
14,0,0,0,0,193
15,0,0,0,0,193
0,0,0,0,0,193
1,0,0,0,0,193
2,0,0,0,0,193
3,0,0,0,0,193
4,0,0,0,0,193
5,0,0,0,0,193
6,0,0,0,0,194
7,0,0,0,0,194
8,0,0,0,0,194
9,0,0,0,0,194
10,0,0,0,0,194
11,0,0,0,0,194
12,0,0,0,0,194
13,0,0,0,0,194
14,0,0,0,0,194
15,0,0,0,0,195
0,0,0,0,0,195
1,0,0,0,0,195
2,0,0,0,0,194
3,0,0,0,0,195
4,0,0,0,0,195
5,0,0,0,0,195
6,0,0,0,0,195
7,0,0,0,0,195
8,0,0,0,0,195
9,0,0,0,0,195
10,0,0,0,0,195
11,0,0,0,0,195
12,0,0,0,0,195
13,0,0,0,0,195
14,0,0,0,0,195
15,0,0,0,0,195
0,0,0,0,0,195
1,0,0,0,0,195
2,0,0,0,0,195
3,0,0,0,0,195
4,0,0,0,0,195
5,0,0,0,0,195
6,0,0,0,0,195
7,0,0,0,0,195
8,0,0,0,0,195
9,0,0,0,0,195
10,0,0,0,0,195
11,0,0,0,0,195
12,0,0,0,0,195
13,0,0,0,0,195
14,0,0,0,0,195
15,0,0,0,0,195
0,0,0,0,0,195
1,0,0,0,0,195
2,0,0,0,0,195
3,0,0,0,0,195
4,0,0,0,0,195
5,0,0,0,0,196
6,0,0,0,0,196
7,0,0,0,0,196
8,0,0,0,0,196
9,0,0,0,0,196
10,0,0,0,0,196
11,0,0,0,0,196
12,0,0,0,0,196
13,0,0,0,0,196
14,0,0,0,0,196
15,0,0,0,0,196
0,0,0,0,0,196
1,0,0,0,0,196
2,0,0,0,0,196
3,0,0,0,0,196
4,0,0,0,0,196
5,0,0,0,0,196
6,0,0,0,0,196
7,0,0,0,0,196
8,0,0,0,0,196
9,0,0,0,0,196
10,0,0,0,0,196
11,0,0,0,0,196
12,0,0,0,0,196
13,0,0,0,0,196
14,0,0,0,0,196
15,0,0,0,0,196
0,0,0,0,0,196
1,0,0,0,0,196
2,0,0,0,0,196
3,0,0,0,0,196
4,0,0,0,0,196
5,0,0,0,0,196
6,0,0,0,0,196
7,0,0,0,0,196
8,0,0,0,0,196
9,0,0,0,0,196
10,0,0,0,0,196
11,0,0,0,0,196
12,0,0,0,0,196
13,0,0,0,0,196
14,0,0,0,0,195
15,0,0,0,0,196
0,0,0,0,0,196
1,0,0,0,0,196
2,0,0,0,0,196
3,0,0,0,0,196
4,0,0,0,0,196
5,0,0,0,0,196
6,0,0,0,0,196
7,0,0,0,0,196
8,0,0,0,0,196
9,0,0,0,0,196
10,0,0,0,0,196
11,0,0,0,0,196
12,0,0,0,0,196
13,0,0,0,0,196
14,0,0,0,0,196
15,0,0,0,0,196
0,0,0,0,0,196
1,0,0,0,0,196
2,0,0,0,0,196
3,0,0,0,0,196
4,0,0,0,0,196
5,0,0,0,0,196
6,0,0,0,0,196
7,0,0,0,0,196
8,0,0,0,0,196
9,0,0,0,0,196
10,0,0,0,0,196
11,0,0,0,0,196
12,0,0,0,0,196
13,0,0,0,0,196
14,0,0,0,0,196
15,0,0,0,0,196
0,0,0,0,0,196
1,0,0,0,0,196
2,0,0,0,0,196
3,0,0,0,0,196
4,0,0,0,0,196
5,0,0,0,0,196
6,0,0,0,0,196
7,0,0,0,0,196
8,0,0,0,0,196
9,0,0,0,0,196
10,0,0,0,0,196
11,0,0,0,0,196
12,0,0,0,0,196
13,0,0,0,0,196
14,0,0,0,0,196
15,0,0,0,0,196
0,0,0,0,0,196
1,0,0,0,0,196
2,0,0,0,0,196
3,0,0,0,0,196
4,0,0,0,0,196
5,0,0,0,0,196
6,0,0,0,0,196
7,0,0,0,0,196
8,0,0,0,0,196
9,0,0,0,0,196
10,0,0,0,0,196
11,0,0,0,0,196
12,0,0,0,0,196
13,0,0,0,0,196
14,0,0,0,0,195
15,0,0,0,0,195
0,0,0,0,0,196
1,0,0,0,0,196
2,0,0,0,0,195
3,0,0,0,0,195
4,0,0,0,0,195
5,0,0,0,0,195
6,0,0,0,0,195
7,0,0,0,0,195
8,0,0,0,0,196
9,0,0,0,0,195
10,0,0,0,0,195
11,0,0,0,0,195
12,0,0,0,0,195
13,0,0,0,0,195
14,0,0,0,0,195
15,0,0,0,0,195
0,0,0,0,0,195
1,0,0,0,0,195
2,0,0,0,0,195
3,0,0,0,0,195
4,0,0,0,0,195
5,0,0,0,0,195
6,0,0,0,0,195
7,0,0,0,0,195
8,0,0,0,0,195
9,0,0,0,0,195
10,0,0,0,0,195
11,0,0,0,0,195
12,0,0,0,0,196
13,0,0,0,0,196
14,0,0,0,0,196
15,0,0,0,0,196
0,0,0,0,0,196
1,0,0,0,0,196
2,0,0,0,0,196
3,0,0,0,0,196
4,0,0,0,0,196
5,0,0,0,0,196
6,0,0,0,0,196
7,0,0,0,0,196
8,0,0,0,0,196
9,0,0,0,0,195
10,0,0,0,0,195
11,0,0,0,0,195
12,0,0,0,0,195
13,0,0,0,0,195
14,0,0,0,0,195
15,0,0,0,0,195
0,0,0,0,0,195
1,0,0,0,0,195
2,0,0,0,0,195
3,0,0,0,0,195
4,0,0,0,0,195
5,0,0,0,0,195
6,0,0,0,0,195
7,0,0,0,0,195
8,0,0,0,0,196
9,0,0,0,0,196
10,0,0,0,0,195
11,0,0,0,0,196
12,0,0,0,0,196
13,0,0,0,0,196
14,0,0,0,0,195
15,0,0,0,0,196
0,0,0,0,0,196
1,0,0,0,0,196
2,0,0,0,0,195
3,0,0,0,0,195
4,0,0,0,0,195
5,0,0,0,0,195
6,0,0,0,0,195
7,0,0,0,0,195
8,0,0,0,0,196
9,0,0,0,0,196
10,0,0,0,0,195
11,0,0,0,0,196
12,0,0,0,0,196
13,0,0,0,0,196
14,0,0,0,0,196
15,0,0,0,0,196
0,0,0,0,0,196
1,0,0,0,0,196
2,0,0,0,0,196
3,0,0,0,0,196
4,0,0,0,0,196
5,0,0,0,0,196
6,0,0,0,0,196
7,0,0,0,0,196
8,0,0,0,0,196
9,0,0,0,0,196
10,0,0,0,0,195
11,0,0,0,0,196
12,0,0,0,0,196
13,0,0,0,0,195
14,0,0,0,0,195
15,0,0,0,0,196
0,0,0,0,0,196
1,0,0,0,0,196
2,0,0,0,0,196
3,0,0,0,0,196
4,0,0,0,0,196
5,0,0,0,0,196
6,0,0,0,0,195
7,0,0,0,0,196
8,0,0,0,0,196
9,0,0,0,0,195
10,0,0,0,0,195
11,0,0,0,0,195
12,0,0,0,0,195
13,0,0,0,0,195
14,0,0,0,0,195
15,0,0,0,0,195
0,0,0,0,0,195
1,0,0,0,0,195
2,0,0,0,0,195
3,0,0,0,0,195
4,0,0,0,0,195
5,0,0,0,0,195
6,0,0,0,0,195
7,0,0,0,0,195
8,0,0,0,0,195
9,0,0,0,0,195
10,0,0,0,0,195
11,0,0,0,0,195
12,0,0,0,0,195
13,0,0,0,0,195
14,0,0,0,0,195
15,0,0,0,0,195
0,0,0,0,0,195
1,0,0,0,0,195
2,0,0,0,0,195
3,0,0,0,0,195
4,0,0,0,0,195
5,0,0,0,0,195
6,0,0,0,0,195
7,0,0,0,0,195
8,0,0,0,0,195
9,0,0,0,0,195
10,0,0,0,0,195
11,0,0,0,0,195
12,0,0,0,0,195
13,0,0,0,0,195
14,0,0,0,0,195
15,0,0,0,0,195
0,0,0,0,0,195
1,0,0,0,0,195
2,0,0,0,0,195
3,0,0,0,0,195
4,0,0,0,0,195
5,0,0,0,0,195
6,0,0,0,0,195
7,0,0,0,0,195
8,0,0,0,0,195
9,0,0,0,0,195
10,0,0,0,0,195
11,0,0,0,0,195
12,0,0,0,0,195
13,0,0,0,0,195
14,0,0,0,0,195
15,0,0,0,0,195
0,0,0,0,0,195
1,0,0,0,0,195
2,0,0,0,0,195
3,0,0,0,0,195
4,0,0,0,0,195
5,0,0,0,0,195
6,0,0,0,0,195
7,0,0,0,0,195
8,0,0,0,0,195
9,0,0,0,0,194
10,0,0,0,0,194
11,0,0,0,0,194
12,0,0,0,0,195
13,0,0,0,0,194
14,0,0,0,0,194
15,0,0,0,0,194
0,0,0,0,0,194
1,0,0,0,0,194
2,0,0,0,0,194
3,0,0,0,0,194
4,0,0,0,0,194
5,0,0,0,0,194
6,0,0,0,0,194
7,0,0,0,0,194
8,0,0,0,0,194
9,0,0,0,0,194
10,0,0,0,0,193
11,0,0,0,0,193
12,0,0,0,0,194
13,0,0,0,0,193
14,0,0,0,0,193
15,0,0,0,0,193
0,0,0,0,0,193
1,0,0,0,0,193
2,0,0,0,0,193
3,0,0,0,0,193
4,0,0,0,0,193
5,0,0,0,0,193
6,0,0,0,0,193
7,0,0,0,0,193
8,0,0,0,0,193
9,0,0,0,0,193
10,0,0,0,0,193
11,0,0,0,0,193
12,0,0,0,0,193
13,0,0,0,0,193
14,0,0,0,0,193
15,0,0,0,0,193
0,0,0,0,0,193
1,0,0,0,0,193
2,0,0,0,0,193
3,0,0,0,0,193
4,0,0,0,0,193
5,0,0,0,0,193
6,0,0,0,0,192
7,0,0,0,0,192
8,0,0,0,0,192
9,0,0,0,0,192
10,0,0,0,0,192
11,0,0,0,0,192
12,0,0,0,0,192
13,0,0,0,0,192
14,0,0,0,0,192
15,0,0,0,0,192
0,0,0,0,0,192
1,0,0,0,0,192
2,0,0,0,0,192
3,0,0,0,0,192
4,0,0,0,0,192
5,0,0,0,0,192
6,0,0,0,0,192
7,0,0,0,0,192
8,0,0,0,0,192
9,0,0,0,0,192
10,0,0,0,0,192
11,0,0,0,0,192
12,0,0,0,0,192
13,0,0,0,0,192
14,0,0,0,0,192
15,0,0,0,0,192
0,0,0,0,0,192
1,0,0,0,0,192
2,0,0,0,0,191
3,0,0,0,0,192
4,0,0,0,0,192
5,0,0,0,0,191
6,0,0,0,0,191
7,0,0,0,0,191
8,0,0,0,0,191
9,0,0,0,0,191
10,0,0,0,0,191
11,0,0,0,0,191
12,0,0,0,0,191
13,0,0,0,0,191
14,0,0,0,0,191
15,0,0,0,0,191
0,0,0,0,0,191
1,0,0,0,0,191
2,0,0,0,0,191
3,0,0,0,0,191
4,0,0,0,0,191
5,0,0,0,0,191
6,0,0,0,0,191
7,0,0,0,0,191
8,0,0,0,0,191
9,0,0,0,0,191
10,0,0,0,0,191
11,0,0,0,0,191
12,0,0,0,0,191
13,0,0,0,0,191
14,0,0,0,0,190
15,0,0,0,0,190
0,0,0,0,0,191
1,0,0,0,0,190
2,0,0,0,0,190
3,0,0,0,0,190
4,0,0,0,0,190
5,0,0,0,0,190
6,0,0,0,0,190
7,0,0,0,0,190
8,0,0,0,0,190
9,0,0,0,0,190
10,0,0,0,0,190
11,0,0,0,0,190
12,0,0,0,0,190
13,0,0,0,0,190
14,0,0,0,0,190
15,0,0,0,0,190
0,0,0,0,0,190
1,0,0,0,0,190
2,0,0,0,0,190
3,0,0,0,0,190
4,0,0,0,0,190
5,0,0,0,0,190
6,0,0,0,0,190
7,0,0,0,0,190
8,0,0,0,0,190
9,0,0,0,0,190
10,0,0,0,0,190
11,0,0,0,0,190
12,0,0,0,0,190
13,0,0,0,0,190
14,0,0,0,0,189
15,0,0,0,0,189
0,0,0,0,0,190
1,0,0,0,0,189
2,0,0,0,0,189
3,0,0,0,0,189
4,0,0,0,0,189
5,0,0,0,0,189
6,0,0,0,0,189
7,0,0,0,0,189
8,0,0,0,0,189
9,0,0,0,0,189
10,0,0,0,0,189
11,0,0,0,0,189
12,0,0,0,0,189
13,0,0,0,0,189
14,0,0,0,0,189
15,0,0,0,0,189
0,0,0,0,0,189
1,0,0,0,0,189
2,0,0,0,0,189
3,0,0,0,0,189
4,0,0,0,0,189
5,0,0,0,0,189
6,0,0,0,0,188
7,0,0,0,0,188
8,0,0,0,0,189
9,0,0,0,0,188
10,0,0,0,0,188
11,0,0,0,0,188
12,0,0,0,0,188
13,0,0,0,0,188
14,0,0,0,0,188
15,0,0,0,0,188
0,0,0,0,0,188
1,0,0,0,0,188
2,0,0,0,0,188
3,0,0,0,0,188
4,0,0,0,0,188
5,0,0,0,0,188
6,0,0,0,0,188
7,0,0,0,0,188
8,0,0,0,0,188
9,0,0,0,0,188
10,0,0,0,0,188
11,0,0,0,0,188
12,0,0,0,0,188
13,0,0,0,0,188
14,0,0,0,0,188
15,0,0,0,0,188
0,0,0,0,0,188
1,0,0,0,0,188
2,0,0,0,0,188
3,0,0,0,0,188
4,0,0,0,0,188
5,0,0,0,0,188
6,0,0,0,0,188
7,0,0,0,0,188
8,0,0,0,0,188
9,0,0,0,0,188
10,0,0,0,0,188
11,0,0,0,0,188
12,0,0,0,0,188
13,0,0,0,0,188
14,0,0,0,0,188
15,0,0,0,0,187
0,0,0,0,0,188
1,0,0,0,0,187
2,0,0,0,0,187
3,0,0,0,0,187
4,0,0,0,0,187
5,0,0,0,0,187
6,0,0,0,0,187
7,0,0,0,0,187
8,0,0,0,0,187
9,0,0,0,0,187
10,0,0,0,0,187
11,0,0,0,0,187
12,0,0,0,0,187
13,0,0,0,0,187
14,0,0,0,0,187
15,0,0,0,0,187
0,0,0,0,0,187
1,0,0,0,0,186
2,0,0,0,0,186
3,0,0,0,0,186
4,0,0,0,0,186
5,0,0,0,0,186
6,0,0,0,0,186
7,0,0,0,0,186
8,0,0,0,0,186
9,0,0,0,0,186
10,0,0,0,0,186
11,0,0,0,0,186
12,0,0,0,0,186
13,0,0,0,0,186
14,0,0,0,0,186
15,0,0,0,0,186
0,0,0,0,0,186
1,0,0,0,0,186
2,0,0,0,0,186
3,0,0,0,0,186
4,0,0,0,0,186
5,0,0,0,0,185
6,0,0,0,0,185
7,0,0,0,0,185
8,0,0,0,0,185
9,0,0,0,0,185
10,0,0,0,0,185
11,0,0,0,0,185
12,0,0,0,0,185
13,0,0,0,0,185
14,0,0,0,0,185
15,0,0,0,0,185
0,0,0,0,0,185
1,0,0,0,0,185
2,0,0,0,0,184
3,0,0,0,0,185
4,0,0,0,0,185
5,0,0,0,0,184
6,0,0,0,0,184
7,0,0,0,0,184
8,0,0,0,0,184
9,0,0,0,0,184
10,0,0,0,0,184
11,0,0,0,0,184
12,0,0,0,0,184
13,0,0,0,0,184
14,0,0,0,0,184
15,0,0,0,0,184
0,0,0,0,0,184
1,0,0,0,0,184
2,0,0,0,0,184
3,0,0,0,0,184
4,0,0,0,0,184
5,0,0,0,0,184
6,0,0,0,0,184
7,0,0,0,0,184
8,0,0,0,0,184
9,0,0,0,0,184
10,0,0,0,0,184
11,0,0,0,0,184
12,0,0,0,0,184
13,0,0,0,0,184
14,0,0,0,0,184
15,0,0,0,0,184
0,0,0,0,0,184
1,0,0,0,0,184
2,0,0,0,0,184
3,0,0,0,0,184
4,0,0,0,0,184
5,0,0,0,0,184
6,0,0,0,0,184
7,0,0,0,0,184
8,0,0,0,0,184
9,0,0,0,0,184
10,0,0,0,0,184
11,0,0,0,0,184
12,0,0,0,0,184
13,0,0,0,0,184
14,0,0,0,0,184
15,0,0,0,0,184
0,0,0,0,0,184
1,0,0,0,0,184
2,0,0,0,0,184
3,0,0,0,0,184
4,0,0,0,0,184
5,0,0,0,0,184
6,0,0,0,0,184
7,0,0,0,0,184
8,0,0,0,0,184
9,0,0,0,0,184
10,0,0,0,0,184
11,0,0,0,0,184
12,0,0,0,0,184
13,0,0,0,0,184
14,0,0,0,0,184
15,0,0,0,0,184
0,0,0,0,0,184
1,0,0,0,0,184
2,0,0,0,0,184
3,0,0,0,0,184
4,0,0,0,0,184
5,0,0,0,0,184
6,0,0,0,0,184
7,0,0,0,0,184
8,0,0,0,0,184
9,0,0,0,0,184
10,0,0,0,0,184
11,0,0,0,0,184
12,0,0,0,0,184
13,0,0,0,0,184
14,0,0,0,0,184
15,0,0,0,0,184
0,0,0,0,0,185
1,0,0,0,0,185
2,0,0,0,0,185
3,0,0,0,0,185
4,0,0,0,0,185
5,0,0,0,0,185
6,0,0,0,0,185
7,0,0,0,0,185
8,0,0,0,0,185
9,0,0,0,0,185
10,0,0,0,0,185
11,0,0,0,0,185
12,0,0,0,0,185
13,0,0,0,0,185
14,0,0,0,0,185
15,0,0,0,0,185
0,0,0,0,0,185
1,0,0,0,0,185
2,0,0,0,0,185
3,0,0,0,0,185
4,0,0,0,0,185
5,0,0,0,0,185
6,0,0,0,0,186
7,0,0,0,0,186
8,0,0,0,0,186
9,0,0,0,0,186
10,0,0,0,0,186
11,0,0,0,0,186
12,0,0,0,0,186
13,0,0,0,0,186
14,0,0,0,0,186
15,0,0,0,0,186
0,0,0,0,0,187
1,0,0,0,0,186
2,0,0,0,0,187
3,0,0,0,0,187
4,0,0,0,0,187
5,0,0,0,0,187
6,0,0,0,0,187
7,0,0,0,0,187
8,0,0,0,0,187
9,0,0,0,0,187
10,0,0,0,0,187
11,0,0,0,0,187
12,0,0,0,0,187
13,0,0,0,0,187
14,0,0,0,0,187
15,0,0,0,0,187
0,0,0,0,0,187
1,0,0,0,0,187
2,0,0,0,0,187
3,0,0,0,0,188
4,0,0,0,0,188
5,0,0,0,0,188
6,0,0,0,0,188
7,0,0,0,0,188
8,0,0,0,0,188
9,0,0,0,0,188
10,0,0,0,0,188
11,0,0,0,0,188
12,0,0,0,0,188
13,0,0,0,0,188
14,0,0,0,0,188
15,0,0,0,0,188
0,0,0,0,0,188
1,0,0,0,0,188
2,0,0,0,0,188
3,0,0,0,0,189
4,0,0,0,0,189
5,0,0,0,0,189
6,0,0,0,0,189
7,0,0,0,0,189
8,0,0,0,0,189
9,0,0,0,0,189
10,0,0,0,0,189
11,0,0,0,0,189
12,0,0,0,0,190
13,0,0,0,0,190
14,0,0,0,0,190
15,0,0,0,0,190
0,0,0,0,0,190
1,0,0,0,0,190
2,0,0,0,0,190
3,0,0,0,0,190
4,0,0,0,0,190
5,0,0,0,0,190
6,0,0,0,0,190
7,0,0,0,0,190
8,0,0,0,0,191
9,0,0,0,0,191
10,0,0,0,0,191
11,0,0,0,0,191
12,0,0,0,0,191
13,0,0,0,0,191
14,0,0,0,0,191
15,0,0,0,0,191
0,0,0,0,0,191
1,0,0,0,0,191
2,0,0,0,0,191
3,0,0,0,0,191
4,0,0,0,0,191
5,0,0,0,0,191
6,0,0,0,0,191
7,0,0,0,0,191
8,0,0,0,0,191
9,0,0,0,0,191
10,0,0,0,0,191
11,0,0,0,0,191
12,0,0,0,0,192
13,0,0,0,0,192
14,0,0,0,0,192
15,0,0,0,0,192
0,0,0,0,0,192
1,0,0,0,0,192
2,0,0,0,0,192
3,0,0,0,0,192
4,0,0,0,0,192
5,0,0,0,0,192
6,0,0,0,0,192
7,0,0,0,0,192
8,0,0,0,0,192
9,0,0,0,0,192
10,0,0,0,0,192
11,0,0,0,0,192
12,0,0,0,0,192
13,0,0,0,0,192
14,0,0,0,0,192
15,0,0,0,0,192
0,0,0,0,0,193
1,0,0,0,0,193
2,0,0,0,0,193
3,0,0,0,0,193
4,0,0,0,0,193
5,0,0,0,0,193
6,0,0,0,0,193
7,0,0,0,0,193
8,0,0,0,0,193
9,0,0,0,0,193
10,0,0,0,0,193
11,0,0,0,0,193
12,0,0,0,0,193
13,0,0,0,0,193
14,0,0,0,0,193
15,0,0,0,0,193
0,0,0,0,0,193
1,0,0,0,0,193
2,0,0,0,0,193
3,0,0,0,0,193
4,0,0,0,0,193
5,0,0,0,0,193
6,0,0,0,0,193
7,0,0,0,0,193
8,0,0,0,0,194
9,0,0,0,0,193
10,0,0,0,0,193
11,0,0,0,0,194
12,0,0,0,0,194
13,0,0,0,0,193
14,0,0,0,0,193
15,0,0,0,0,193
0,0,0,0,0,194
1,0,0,0,0,194
2,0,0,0,0,194
3,0,0,0,0,194
4,0,0,0,0,194
5,0,0,0,0,194
6,0,0,0,0,194
7,0,0,0,0,194
8,0,0,0,0,194
9,0,0,0,0,194
10,0,0,0,0,194
11,0,0,0,0,194
12,0,0,0,0,194
13,0,0,0,0,194
14,0,0,0,0,194
15,0,0,0,0,194
0,0,0,0,0,194
1,0,0,0,0,194
2,0,0,0,0,194
3,0,0,0,0,194
4,0,0,0,0,194
5,0,0,0,0,194
6,0,0,0,0,194
7,0,0,0,0,194
8,0,0,0,0,194
9,0,0,0,0,194
10,0,0,0,0,194
11,0,0,0,0,194
12,0,0,0,0,194
13,0,0,0,0,194
14,0,0,0,0,194
15,0,0,0,0,194
0,0,0,0,0,194
1,0,0,0,0,194
2,0,0,0,0,194
3,0,0,0,0,194
4,0,0,0,0,194
5,0,0,0,0,194
6,0,0,0,0,194
7,0,0,0,0,194
8,0,0,0,0,194
9,0,0,0,0,194
10,0,0,0,0,194
11,0,0,0,0,194
12,0,0,0,0,194
13,0,0,0,0,194
14,0,0,0,0,194
15,0,0,0,0,194
0,0,0,0,0,194
1,0,0,0,0,194
2,0,0,0,0,193
3,0,0,0,0,193
4,0,0,0,0,194
5,0,0,0,0,193
6,0,0,0,0,193
7,0,0,0,0,193
8,0,0,0,0,194
9,0,0,0,0,193
10,0,0,0,0,193
11,0,0,0,0,193
12,0,0,0,0,193
13,0,0,0,0,193
14,0,0,0,0,193
15,0,0,0,0,193
0,0,0,0,0,193
1,0,0,0,0,193
2,0,0,0,0,193
3,0,0,0,0,193
4,0,0,0,0,193
5,0,0,0,0,193
6,0,0,0,0,193
7,0,0,0,0,193
8,0,0,0,0,193
9,0,0,0,0,193
10,0,0,0,0,193
11,0,0,0,0,193
12,0,0,0,0,193
13,0,0,0,0,193
14,0,0,0,0,193
15,0,0,0,0,193
0,0,0,0,0,193
1,0,0,0,0,193
2,0,0,0,0,193
3,0,0,0,0,193
4,0,0,0,0,193
5,0,0,0,0,193
6,0,0,0,0,193
7,0,0,0,0,193
8,0,0,0,0,193
9,0,0,0,0,193
10,0,0,0,0,193
11,0,0,0,0,193
12,0,0,0,0,193
13,0,0,0,0,193
14,0,0,0,0,193
15,0,0,0,0,192
0,0,0,0,0,193
1,0,0,0,0,192
2,0,0,0,0,192
3,0,0,0,0,192
4,0,0,0,0,193
5,0,0,0,0,192
6,0,0,0,0,192
7,0,0,0,0,192
8,0,0,0,0,192
9,0,0,0,0,192
10,0,0,0,0,192
11,0,0,0,0,192
12,0,0,0,0,192
13,0,0,0,0,192
14,0,0,0,0,192
15,0,0,0,0,192
0,0,0,0,0,192
1,0,0,0,0,192
2,0,0,0,0,192
3,0,0,0,0,192
4,0,0,0,0,192
5,0,0,0,0,192
6,0,0,0,0,192
7,0,0,0,0,192
8,0,0,0,0,192
9,0,0,0,0,192
10,0,0,0,0,192
11,0,0,0,0,192
12,0,0,0,0,192
13,0,0,0,0,192
14,0,0,0,0,192
15,0,0,0,0,192
0,0,0,0,0,192
1,0,0,0,0,192
2,0,0,0,0,192
3,0,0,0,0,192
4,0,0,0,0,192
5,0,0,0,0,192
6,0,0,0,0,191
7,0,0,0,0,191
8,0,0,0,0,192
9,0,0,0,0,191
10,0,0,0,0,191
11,0,0,0,0,191
12,0,0,0,0,192
13,0,0,0,0,191
14,0,0,0,0,191
15,0,0,0,0,191
0,0,0,0,0,191
1,0,0,0,0,191
2,0,0,0,0,191
3,0,0,0,0,191
4,0,0,0,0,191
5,0,0,0,0,191
6,0,0,0,0,191
7,0,0,0,0,191
8,0,0,0,0,191
9,0,0,0,0,191
10,0,0,0,0,191
11,0,0,0,0,191
12,0,0,0,0,191
13,0,0,0,0,191
14,0,0,0,0,191
15,0,0,0,0,191
0,0,0,0,0,191
1,0,0,0,0,191
2,0,0,0,0,191
3,0,0,0,0,191
4,0,0,0,0,191
5,0,0,0,0,191
6,0,0,0,0,191
7,0,0,0,0,191
8,0,0,0,0,191
9,0,0,0,0,190
10,0,0,0,0,190
11,0,0,0,0,190
12,0,0,0,0,191
13,0,0,0,0,190
14,0,0,0,0,190
15,0,0,0,0,190
0,0,0,0,0,190
1,0,0,0,0,190
2,0,0,0,0,190
3,0,0,0,0,190
4,0,0,0,0,190
5,0,0,0,0,190
6,0,0,0,0,190
7,0,0,0,0,190
8,0,0,0,0,190
9,0,0,0,0,190
10,0,0,0,0,190
11,0,0,0,0,190
12,0,0,0,0,190
13,0,0,0,0,190
14,0,0,0,0,190
15,0,0,0,0,190
0,0,0,0,0,190
1,0,0,0,0,190
2,0,0,0,0,190
3,0,0,0,0,190
4,0,0,0,0,190
5,0,0,0,0,189
6,0,0,0,0,190
7,0,0,0,0,189
8,0,0,0,0,190
9,0,0,0,0,189
10,0,0,0,0,189
11,0,0,0,0,189
12,0,0,0,0,190
13,0,0,0,0,189
14,0,0,0,0,189
15,0,0,0,0,189
0,0,0,0,0,189
1,0,0,0,0,189
2,0,0,0,0,189
3,0,0,0,0,189
4,0,0,0,0,189
5,0,0,0,0,189
6,0,0,0,0,189
7,0,0,0,0,189
8,0,0,0,0,189
9,0,0,0,0,189
10,0,0,0,0,189
11,0,0,0,0,189
12,0,0,0,0,189
13,0,0,0,0,189
14,0,0,0,0,189
15,0,0,0,0,188
0,0,0,0,0,189
1,0,0,0,0,188
2,0,0,0,0,188
3,0,0,0,0,188
4,0,0,0,0,188
5,0,0,0,0,188
6,0,0,0,0,188
7,0,0,0,0,188
8,0,0,0,0,188
9,0,0,0,0,188
10,0,0,0,0,188
11,0,0,0,0,188
12,0,0,0,0,188
13,0,0,0,0,188
14,0,0,0,0,188
15,0,0,0,0,188
0,0,0,0,0,188
1,0,0,0,0,187
2,0,0,0,0,187
3,0,0,0,0,187
4,0,0,0,0,187
5,0,0,0,0,187
6,0,0,0,0,187
7,0,0,0,0,187
8,0,0,0,0,187
9,0,0,0,0,187
10,0,0,0,0,187
11,0,0,0,0,187
12,0,0,0,0,187
13,0,0,0,0,187
14,0,0,0,0,187
15,0,0,0,0,187
0,0,0,0,0,187
1,0,0,0,0,187
2,0,0,0,0,187
3,0,0,0,0,187
4,0,0,0,0,187
5,0,0,0,0,187
6,0,0,0,0,187
7,0,0,0,0,187
8,0,0,0,0,187
9,0,0,0,0,187
10,0,0,0,0,187
11,0,0,0,0,187
12,0,0,0,0,187
13,0,0,0,0,187
14,0,0,0,0,187
15,0,0,0,0,186
0,0,0,0,0,187
1,0,0,0,0,186
2,0,0,0,0,186
3,0,0,0,0,186
4,0,0,0,0,187
5,0,0,0,0,186
6,0,0,0,0,186
7,0,0,0,0,186
8,0,0,0,0,187
9,0,0,0,0,186
10,0,0,0,0,186
11,0,0,0,0,186
12,0,0,0,0,186
13,0,0,0,0,186
14,0,0,0,0,186
15,0,0,0,0,186
0,0,0,0,0,187
1,0,0,0,0,186
2,0,0,0,0,186
3,0,0,0,0,186
4,0,0,0,0,187
5,0,0,0,0,187
6,0,0,0,0,187
7,0,0,0,0,187
8,0,0,0,0,187
9,0,0,0,0,186
10,0,0,0,0,186
11,0,0,0,0,186
12,0,0,0,0,187
13,0,0,0,0,186
14,0,0,0,0,186
15,0,0,0,0,186
0,0,0,0,0,186
1,0,0,0,0,186
2,0,0,0,0,186
3,0,0,0,0,186
4,0,0,0,0,186
5,0,0,0,0,186
6,0,0,0,0,186
7,0,0,0,0,186
8,0,0,0,0,186
9,0,0,0,0,186
10,0,0,0,0,186
11,0,0,0,0,186
12,0,0,0,0,186
13,0,0,0,0,186
14,0,0,0,0,186
15,0,0,0,0,186
0,0,0,0,0,186
1,0,0,0,0,186
2,0,0,0,0,186
3,0,0,0,0,186
4,0,0,0,0,186
5,0,0,0,0,186
6,0,0,0,0,186
7,0,0,0,0,186
8,0,0,0,0,186
9,0,0,0,0,186
10,0,0,0,0,186
11,0,0,0,0,186
12,0,0,0,0,186
13,0,0,0,0,185
14,0,0,0,0,186
15,0,0,0,0,185
0,0,0,0,0,186
1,0,0,0,0,185
2,0,0,0,0,185
3,0,0,0,0,185
4,0,0,0,0,186
5,0,0,0,0,185
6,0,0,0,0,185
7,0,0,0,0,185
8,0,0,0,0,186
9,0,0,0,0,185
10,0,0,0,0,185
11,0,0,0,0,185
12,0,0,0,0,185
13,0,0,0,0,185
14,0,0,0,0,185
15,0,0,0,0,185
0,0,0,0,0,185
1,0,0,0,0,185
2,0,0,0,0,185
3,0,0,0,0,185
4,0,0,0,0,185
5,0,0,0,0,185
6,0,0,0,0,185
7,0,0,0,0,185
8,0,0,0,0,185
9,0,0,0,0,185
10,0,0,0,0,185
11,0,0,0,0,185
12,0,0,0,0,185
13,0,0,0,0,185
14,0,0,0,0,185
15,0,0,0,0,185
0,0,0,0,0,185
1,0,0,0,0,185
2,0,0,0,0,185
3,0,0,0,0,185
4,0,0,0,0,185
5,0,0,0,0,185
6,0,0,0,0,185
7,0,0,0,0,185
8,0,0,0,0,185
9,0,0,0,0,185
10,0,0,0,0,185
11,0,0,0,0,185
12,0,0,0,0,185
13,0,0,0,0,185
14,0,0,0,0,185
15,0,0,0,0,185
0,0,0,0,0,185
1,0,0,0,0,185
2,0,0,0,0,185
3,0,0,0,0,185
4,0,0,0,0,185
5,0,0,0,0,185
6,0,0,0,0,185
7,0,0,0,0,185
8,0,0,0,0,185
9,0,0,0,0,185
10,0,0,0,0,185
11,0,0,0,0,185
12,0,0,0,0,185
13,0,0,0,0,185
14,0,0,0,0,185
15,0,0,0,0,185
0,0,0,0,0,185
1,0,0,0,0,185
2,0,0,0,0,185
3,0,0,0,0,185
4,0,0,0,0,185
5,0,0,0,0,185
6,0,0,0,0,185
7,0,0,0,0,185
8,0,0,0,0,185
9,0,0,0,0,185
10,0,0,0,0,185
11,0,0,0,0,185
12,0,0,0,0,185
13,0,0,0,0,185
14,0,0,0,0,185
15,0,0,0,0,185
0,0,0,0,0,185
1,0,0,0,0,185
2,0,0,0,0,185
3,0,0,0,0,185
4,0,0,0,0,185
5,0,0,0,0,185
6,0,0,0,0,185
7,0,0,0,0,185
8,0,0,0,0,185
9,0,0,0,0,185
10,0,0,0,0,185
11,0,0,0,0,185
12,0,0,0,0,185
13,0,0,0,0,185
14,0,0,0,0,185
15,0,0,0,0,185
0,0,0,0,0,185
1,0,0,0,0,185
2,0,0,0,0,185
3,0,0,0,0,185
4,0,0,0,0,185
5,0,0,0,0,185
6,0,0,0,0,185
7,0,0,0,0,185
8,0,0,0,0,186
9,0,0,0,0,185
10,0,0,0,0,186
11,0,0,0,0,186
12,0,0,0,0,186
13,0,0,0,0,186
14,0,0,0,0,186
15,0,0,0,0,186
0,0,0,0,0,186
1,0,0,0,0,186
2,0,0,0,0,186
3,0,0,0,0,186
4,0,0,0,0,186
5,0,0,0,0,186
6,0,0,0,0,186
7,0,0,0,0,186
8,0,0,0,0,186
9,0,0,0,0,186
10,0,0,0,0,186
11,0,0,0,0,186
12,0,0,0,0,186
13,0,0,0,0,186
14,0,0,0,0,186
15,0,0,0,0,186
0,0,0,0,0,186
1,0,0,0,0,186
2,0,0,0,0,186
3,0,0,0,0,186
4,0,0,0,0,187
5,0,0,0,0,186
6,0,0,0,0,187
7,0,0,0,0,186
8,0,0,0,0,187
9,0,0,0,0,187
10,0,0,0,0,187
11,0,0,0,0,187
12,0,0,0,0,187
13,0,0,0,0,187
14,0,0,0,0,187
15,0,0,0,0,187
0,0,0,0,0,187
1,0,0,0,0,187
2,0,0,0,0,187
3,0,0,0,0,187
4,0,0,0,0,187
5,0,0,0,0,187
6,0,0,0,0,187
7,0,0,0,0,187
8,0,0,0,0,187
9,0,0,0,0,187
10,0,0,0,0,187
11,0,0,0,0,187
12,0,0,0,0,187
13,0,0,0,0,187
14,0,0,0,0,187
15,0,0,0,0,187
0,0,0,0,0,187
1,0,0,0,0,187
2,0,0,0,0,187
3,0,0,0,0,187
4,0,0,0,0,187
5,0,0,0,0,187
6,0,0,0,0,187
7,0,0,0,0,187
8,0,0,0,0,187
9,0,0,0,0,187
10,0,0,0,0,187
11,0,0,0,0,187
12,0,0,0,0,187
13,0,0,0,0,187
14,0,0,0,0,187
15,0,0,0,0,187
0,0,0,0,0,187
1,0,0,0,0,187
2,0,0,0,0,187
3,0,0,0,0,187
4,0,0,0,0,187
5,0,0,0,0,187
6,0,0,0,0,187
7,0,0,0,0,187
8,0,0,0,0,187
9,0,0,0,0,187
10,0,0,0,0,187
11,0,0,0,0,187
12,0,0,0,0,187
13,0,0,0,0,187
14,0,0,0,0,187
15,0,0,0,0,187
0,0,0,0,0,187
1,0,0,0,0,187
2,0,0,0,0,187
3,0,0,0,0,187
4,0,0,0,0,187
5,0,0,0,0,187
6,0,0,0,0,187
7,0,0,0,0,187
8,0,0,0,0,187
9,0,0,0,0,187
10,0,0,0,0,187
11,0,0,0,0,187
12,0,0,0,0,187
13,0,0,0,0,187
14,0,0,0,0,187
15,0,0,0,0,187
0,0,0,0,0,187
1,0,0,0,0,186
2,0,0,0,0,186
3,0,0,0,0,186
4,0,0,0,0,187
5,0,0,0,0,186
6,0,0,0,0,186
7,0,0,0,0,186
8,0,0,0,0,187
9,0,0,0,0,186
10,0,0,0,0,186
11,0,0,0,0,186
12,0,0,0,0,187
13,0,0,0,0,187
14,0,0,0,0,187
15,0,0,0,0,187
0,0,0,0,0,187
1,0,0,0,0,187
2,0,0,0,0,187
3,0,0,0,0,187
4,0,0,0,0,187
5,0,0,0,0,187
6,0,0,0,0,187
7,0,0,0,0,187
8,0,0,0,0,187
9,0,0,0,0,187
10,0,0,0,0,187
11,0,0,0,0,187
12,0,0,0,0,187
13,0,0,0,0,187
14,0,0,0,0,187
15,0,0,0,0,187
0,0,0,0,0,187
1,0,0,0,0,187
2,0,0,0,0,187
3,0,0,0,0,187
4,0,0,0,0,187
5,0,0,0,0,187
6,0,0,0,0,187
7,0,0,0,0,187
8,0,0,0,0,187
9,0,0,0,0,187
10,0,0,0,0,187
11,0,0,0,0,187
12,0,0,0,0,187
13,0,0,0,0,187
14,0,0,0,0,187
15,0,0,0,0,187
0,0,0,0,0,187
1,0,0,0,0,187
2,0,0,0,0,187
3,0,0,0,0,187
4,0,0,0,0,187
5,0,0,0,0,187
6,0,0,0,0,187
7,0,0,0,0,187
8,0,0,0,0,187
9,0,0,0,0,187
10,0,0,0,0,187
11,0,0,0,0,186
12,0,0,0,0,187
13,0,0,0,0,186
14,0,0,0,0,186
15,0,0,0,0,186
0,0,0,0,0,187
1,0,0,0,0,186
2,0,0,0,0,186
3,0,0,0,0,186
4,0,0,0,0,187
5,0,0,0,0,186
6,0,0,0,0,186
7,0,0,0,0,186
8,0,0,0,0,186
9,0,0,0,0,186
10,0,0,0,0,186
11,0,0,0,0,186
12,0,0,0,0,186
13,0,0,0,0,186
14,0,0,0,0,186
15,0,0,0,0,186
0,0,0,0,0,186
1,0,0,0,0,186
2,0,0,0,0,186
3,0,0,0,0,186
4,0,0,0,0,186
5,0,0,0,0,186
6,0,0,0,0,186
7,0,0,0,0,186
8,0,0,0,0,186
9,0,0,0,0,186
10,0,0,0,0,186
11,0,0,0,0,186
12,0,0,0,0,186
13,0,0,0,0,186
14,0,0,0,0,186
15,0,0,0,0,186
0,0,0,0,0,186
1,0,0,0,0,186
2,0,0,0,0,186
3,0,0,0,0,186
4,0,0,0,0,186
5,0,0,0,0,186
6,0,0,0,0,186
7,0,0,0,0,185
8,0,0,0,0,186
9,0,0,0,0,185
10,0,0,0,0,186
11,0,0,0,0,185
12,0,0,0,0,186
13,0,0,0,0,185
14,0,0,0,0,186
15,0,0,0,0,185
0,0,0,0,0,186
1,0,0,0,0,185
2,0,0,0,0,186
3,0,0,0,0,185
4,0,0,0,0,186
5,0,0,0,0,185
6,0,0,0,0,186
7,0,0,0,0,185
8,0,0,0,0,186
9,0,0,0,0,185
10,0,0,0,0,186
11,0,0,0,0,185
12,0,0,0,0,186
13,0,0,0,0,185
14,0,0,0,0,185
15,0,0,0,0,185
0,0,0,0,0,186
1,0,0,0,0,185
2,0,0,0,0,185
3,0,0,0,0,185
4,0,0,0,0,186
5,0,0,0,0,185
6,0,0,0,0,185
7,0,0,0,0,185
8,0,0,0,0,186
9,0,0,0,0,185
10,0,0,0,0,185
11,0,0,0,0,185
12,0,0,0,0,186
13,0,0,0,0,185
14,0,0,0,0,186
15,0,0,0,0,185
0,0,0,0,0,186
1,0,0,0,0,185
2,0,0,0,0,185
3,0,0,0,0,185
4,0,0,0,0,186
5,0,0,0,0,186
6,0,0,0,0,186
7,0,0,0,0,185
8,0,0,0,0,186
9,0,0,0,0,185
10,0,0,0,0,186
11,0,0,0,0,186
12,0,0,0,0,186
13,0,0,0,0,186
14,0,0,0,0,186
15,0,0,0,0,186
0,0,0,0,0,186
1,0,0,0,0,186
2,0,0,0,0,186
3,0,0,0,0,186
4,0,0,0,0,186
5,0,0,0,0,186
6,0,0,0,0,186
7,0,0,0,0,186
8,0,0,0,0,186
9,0,0,0,0,186
10,0,0,0,0,186
11,0,0,0,0,186
12,0,0,0,0,187
13,0,0,0,0,186
14,0,0,0,0,187
15,0,0,0,0,186
0,0,0,0,0,187
1,0,0,0,0,186
2,0,0,0,0,187
3,0,0,0,0,187
4,0,0,0,0,187
5,0,0,0,0,187
6,0,0,0,0,187
7,0,0,0,0,187
8,0,0,0,0,187
9,0,0,0,0,187
10,0,0,0,0,187
11,0,0,0,0,187
12,0,0,0,0,187
13,0,0,0,0,187
14,0,0,0,0,187
15,0,0,0,0,187
0,0,0,0,0,188
1,0,0,0,0,187
2,0,0,0,0,188
3,0,0,0,0,188
4,0,0,0,0,188
5,0,0,0,0,188
6,0,0,0,0,188
7,0,0,0,0,188
8,0,0,0,0,188
9,0,0,0,0,188
10,0,0,0,0,188
11,0,0,0,0,188
12,0,0,0,0,188
13,0,0,0,0,188
14,0,0,0,0,188
15,0,0,0,0,188
0,0,0,0,0,189
1,0,0,0,0,189
2,0,0,0,0,189
3,0,0,0,0,189
4,0,0,0,0,189
5,0,0,0,0,189
6,0,0,0,0,189
7,0,0,0,0,189
8,0,0,0,0,190
9,0,0,0,0,190
10,0,0,0,0,190
11,0,0,0,0,190
12,0,0,0,0,190
13,0,0,0,0,190
14,0,0,0,0,190
15,0,0,0,0,190
0,0,0,0,0,190
1,0,0,0,0,190
2,0,0,0,0,190
3,0,0,0,0,190
4,0,0,0,0,191
5,0,0,0,0,191
6,0,0,0,0,191
7,0,0,0,0,191
8,0,0,0,0,191
9,0,0,0,0,191
10,0,0,0,0,191
11,0,0,0,0,191
12,0,0,0,0,191
13,0,0,0,0,191
14,0,0,0,0,191
15,0,0,0,0,191
0,0,0,0,0,191
1,0,0,0,0,191
2,0,0,0,0,191
3,0,0,0,0,191
4,0,0,0,0,192
5,0,0,0,0,191
6,0,0,0,0,192
7,0,0,0,0,191
8,0,0,0,0,192
9,0,0,0,0,192
10,0,0,0,0,192
11,0,0,0,0,192
12,0,0,0,0,192
13,0,0,0,0,192
14,0,0,0,0,192
15,0,0,0,0,192
0,0,0,0,0,192
1,0,0,0,0,192
2,0,0,0,0,192
3,0,0,0,0,192
4,0,0,0,0,192
5,0,0,0,0,192
6,0,0,0,0,192
7,0,0,0,0,192
8,0,0,0,0,192
9,0,0,0,0,192
10,0,0,0,0,192
11,0,0,0,0,192
12,0,0,0,0,192
13,0,0,0,0,192
14,0,0,0,0,192
15,0,0,0,0,192
0,0,0,0,0,193
1,0,0,0,0,193
2,0,0,0,0,193
3,0,0,0,0,193
4,0,0,0,0,193
5,0,0,0,0,193
6,0,0,0,0,193
7,0,0,0,0,193
8,0,0,0,0,193
9,0,0,0,0,193
10,0,0,0,0,193
11,0,0,0,0,193
12,0,0,0,0,193
13,0,0,0,0,193
14,0,0,0,0,193
15,0,0,0,0,193
0,0,0,0,0,193
1,0,0,0,0,193
2,0,0,0,0,193
3,0,0,0,0,193
4,0,0,0,0,194
5,0,0,0,0,193
6,0,0,0,0,193
7,0,0,0,0,193
8,0,0,0,0,194
9,0,0,0,0,193
10,0,0,0,0,194
11,0,0,0,0,194
12,0,0,0,0,194
13,0,0,0,0,194
14,0,0,0,0,194
15,0,0,0,0,194
0,0,0,0,0,194
1,0,0,0,0,194
2,0,0,0,0,194
3,0,0,0,0,194
4,0,0,0,0,194
5,0,0,0,0,194
6,0,0,0,0,194
7,0,0,0,0,194
8,0,0,0,0,194
9,0,0,0,0,194
10,0,0,0,0,194
11,0,0,0,0,194
12,0,0,0,0,195
13,0,0,0,0,194
14,0,0,0,0,194
15,0,0,0,0,194
0,0,0,0,0,195
1,0,0,0,0,194
2,0,0,0,0,195
3,0,0,0,0,195
4,0,0,0,0,195
5,0,0,0,0,195
6,0,0,0,0,195
7,0,0,0,0,195
8,0,0,0,0,195
9,0,0,0,0,195
10,0,0,0,0,195
11,0,0,0,0,195
12,0,0,0,0,195
13,0,0,0,0,195
14,0,0,0,0,195
15,0,0,0,0,195
