# OpenSignals Text File Format. Version 1
# {"84:BA:20:5E:FB:98": {"position": 0, "device": "bitalino_rev", "device name": "84:BA:20:5E:FB:98", "device connection": "BTH84:BA:20:5E:FB:98", "sampling rate": 100, "resolution": [4, 1, 1, 1, 1, 10], "firmware version": 1282, "comments": "", "keywords": "", "mode": 0, "sync interval": 2, "date": "2024-3-4", "time": "17:0:34.943", "channels": [2], "sensor": ["ECGBIT"], "label": ["A2"], "column": ["nSeq", "I1", "I2", "O1", "O2", "A2"], "special": [{}], "digital IO": [0, 0, 1, 1]}}
# EndOfHeader
0	0	0	0	0	825	
1	0	0	0	0	1000	
2	0	0	0	0	1022	
3	0	0	0	0	1022	
4	0	0	0	0	1022	
5	0	0	0	0	1022	
6	0	0	0	0	1022	
7	0	0	0	0	1022	
8	0	0	0	0	1022	
9	0	0	0	0	993	
10	0	0	0	0	1022	
11	0	0	0	0	1022	
12	0	0	0	0	1022	
13	0	0	0	0	1022	
14	0	0	0	0	1022	
15	0	0	0	0	1022	
0	0	0	0	0	993	
1	0	0	0	0	877	
2	0	0	0	0	813	
3	0	0	0	0	737	
4	0	0	0	0	619	
5	0	0	0	0	600	
6	0	0	0	0	633	
7	0	0	0	0	576	
8	0	0	0	0	531	
9	0	0	0	0	567	
10	0	0	0	0	573	
11	0	0	0	0	566	
12	0	0	0	0	598	
13	0	0	0	0	639	
14	0	0	0	0	604	
15	0	0	0	0	672	
0	0	0	0	0	734	
1	0	0	0	0	729	
2	0	0	0	0	615	
3	0	0	0	0	747	
4	0	0	0	0	827	
5	0	0	0	0	822	
6	0	0	0	0	795	
7	0	0	0	0	659	
8	0	0	0	0	584	
9	0	0	0	0	507	
10	0	0	0	0	417	
11	0	0	0	0	390	
12	0	0	0	0	374	
13	0	0	0	0	346	
14	0	0	0	0	296	
15	0	0	0	0	257	
0	0	0	0	0	319	
1	0	0	0	0	295	
2	0	0	0	0	284	
3	0	0	0	0	278	
4	0	0	0	0	267	
5	0	0	0	0	210	
6	0	0	0	0	242	
7	0	0	0	0	192	
8	0	0	0	0	184	
9	0	0	0	0	227	
10	0	0	0	0	208	
11	0	0	0	0	186	
12	0	0	0	0	184	
13	0	0	0	0	196	
14	0	0	0	0	169	
15	0	0	0	0	177	
0	0	0	0	0	220	
1	0	0	0	0	212	
2	0	0	0	0	156	
3	0	0	0	0	134	
4	0	0	0	0	104	
5	0	0	0	0	0	
6	0	0	0	0	115	
7	0	0	0	0	102	
8	0	0	0	0	157	
9	0	0	0	0	169	
10	0	0	0	0	198	
11	0	0	0	0	230	
12	0	0	0	0	271	
13	0	0	0	0	314	
14	0	0	0	0	342	
15	0	0	0	0	318	
0	0	0	0	0	93	
1	0	0	0	0	24	
2	0	0	0	0	30	
3	0	0	0	0	43	
4	0	0	0	0	109	
5	0	0	0	0	182	
6	0	0	0	0	247	
7	0	0	0	0	291	
8	0	0	0	0	366	
9	0	0	0	0	428	
10	0	0	0	0	446	
11	0	0	0	0	450	
12	0	0	0	0	507	
13	0	0	0	0	543	
14	0	0	0	0	530	
15	0	0	0	0	471	
0	0	0	0	0	431	
1	0	0	0	0	445	
2	0	0	0	0	573	
3	0	0	0	0	702	
4	0	0	0	0	679	
5	0	0	0	0	684	
6	0	0	0	0	779	
7	0	0	0	0	734	
8	0	0	0	0	648	
9	0	0	0	0	575	
10	0	0	0	0	519	
11	0	0	0	0	524	
12	0	0	0	0	499	
13	0	0	0	0	527	
14	0	0	0	0	513	
15	0	0	0	0	496	
0	0	0	0	0	349	
1	0	0	0	0	236	
2	0	0	0	0	47	
3	0	0	0	0	0	
4	0	0	0	0	0	
5	0	0	0	0	0	
6	0	0	0	0	0	
7	0	0	0	0	0	
8	0	0	0	0	0	
9	0	0	0	0	0	
10	0	0	0	0	0	
11	0	0	0	0	0	
12	0	0	0	0	0	
13	0	0	0	0	0	
14	0	0	0	0	0	
15	0	0	0	0	0	
0	0	0	0	0	0	
1	0	0	0	0	0	
2	0	0	0	0	0	
3	0	0	0	0	167	
4	0	0	0	0	288	
5	0	0	0	0	635	
6	0	0	0	0	785	
7	0	0	0	0	928	
8	0	0	0	0	1022	
9	0	0	0	0	1022	
10	0	0	0	0	1022	
11	0	0	0	0	1022	
12	0	0	0	0	1022	
13	0	0	0	0	1022	
14	0	0	0	0	1001	
15	0	0	0	0	830	
0	0	0	0	0	606	
1	0	0	0	0	256	
2	0	0	0	0	22	
3	0	0	0	0	0	
4	0	0	0	0	0	
5	0	0	0	0	0	
6	0	0	0	0	0	
7	0	0	0	0	0	
8	0	0	0	0	6	
9	0	0	0	0	82	
10	0	0	0	0	108	
11	0	0	0	0	107	
12	0	0	0	0	138	
13	0	0	0	0	177	
14	0	0	0	0	168	
15	0	0	0	0	198	
0	0	0	0	0	211	
1	0	0	0	0	146	
2	0	0	0	0	267	
3	0	0	0	0	426	
4	0	0	0	0	603	
5	0	0	0	0	800	
6	0	0	0	0	971	
7	0	0	0	0	1022	
8	0	0	0	0	1022	
9	0	0	0	0	1022	
10	0	0	0	0	1022	
11	0	0	0	0	1022	
12	0	0	0	0	1022	
13	0	0	0	0	1022	
14	0	0	0	0	1022	
15	0	0	0	0	1022	
0	0	0	0	0	1022	
1	0	0	0	0	1022	
2	0	0	0	0	1022	
3	0	0	0	0	1022	
4	0	0	0	0	1022	
5	0	0	0	0	1022	
6	0	0	0	0	1022	
7	0	0	0	0	974	
8	0	0	0	0	835	
9	0	0	0	0	777	
10	0	0	0	0	707	
11	0	0	0	0	554	
12	0	0	0	0	498	
13	0	0	0	0	567	
14	0	0	0	0	540	
15	0	0	0	0	434	
0	0	0	0	0	401	
1	0	0	0	0	371	
2	0	0	0	0	487	
3	0	0	0	0	385	
4	0	0	0	0	380	
5	0	0	0	0	409	
6	0	0	0	0	392	
7	0	0	0	0	415	
8	0	0	0	0	419	
9	0	0	0	0	415	
10	0	0	0	0	445	
11	0	0	0	0	448	
12	0	0	0	0	472	
13	0	0	0	0	484	
14	0	0	0	0	472	
15	0	0	0	0	472	
0	0	0	0	0	506	
1	0	0	0	0	467	
2	0	0	0	0	461	
3	0	0	0	0	444	
4	0	0	0	0	348	
5	0	0	0	0	194	
6	0	0	0	0	14	
7	0	0	0	0	0	
8	0	0	0	0	0	
9	0	0	0	0	0	
10	0	0	0	0	0	
11	0	0	0	0	0	
12	0	0	0	0	0	
13	0	0	0	0	0	
14	0	0	0	0	0	
15	0	0	0	0	0	
0	0	0	0	0	0	
1	0	0	0	0	16	
2	0	0	0	0	101	
3	0	0	0	0	148	
4	0	0	0	0	231	
5	0	0	0	0	290	
6	0	0	0	0	364	
7	0	0	0	0	390	
8	0	0	0	0	510	
9	0	0	0	0	488	
10	0	0	0	0	522	
11	0	0	0	0	567	
12	0	0	0	0	579	
13	0	0	0	0	630	
14	0	0	0	0	649	
15	0	0	0	0	681	
0	0	0	0	0	678	
1	0	0	0	0	700	
2	0	0	0	0	697	
3	0	0	0	0	700	
4	0	0	0	0	754	
5	0	0	0	0	698	
6	0	0	0	0	721	
7	0	0	0	0	748	
8	0	0	0	0	715	
9	0	0	0	0	725	
10	0	0	0	0	749	
11	0	0	0	0	781	
12	0	0	0	0	760	
13	0	0	0	0	695	
14	0	0	0	0	710	
15	0	0	0	0	717	
0	0	0	0	0	688	
1	0	0	0	0	764	
2	0	0	0	0	722	
3	0	0	0	0	731	
4	0	0	0	0	721	
5	0	0	0	0	721	
6	0	0	0	0	673	
7	0	0	0	0	724	
8	0	0	0	0	684	
9	0	0	0	0	689	
10	0	0	0	0	688	
11	0	0	0	0	713	
12	0	0	0	0	695	
13	0	0	0	0	711	
14	0	0	0	0	659	
15	0	0	0	0	675	
0	0	0	0	0	783	
1	0	0	0	0	677	
2	0	0	0	0	694	
3	0	0	0	0	632	
4	0	0	0	0	674	
5	0	0	0	0	624	
6	0	0	0	0	636	
7	0	0	0	0	654	
8	0	0	0	0	632	
9	0	0	0	0	632	
10	0	0	0	0	642	
11	0	0	0	0	636	
12	0	0	0	0	665	
13	0	0	0	0	641	
14	0	0	0	0	647	
15	0	0	0	0	659	
0	0	0	0	0	627	
1	0	0	0	0	625	
2	0	0	0	0	642	
3	0	0	0	0	615	
4	0	0	0	0	609	
5	0	0	0	0	578	
6	0	0	0	0	560	
7	0	0	0	0	531	
8	0	0	0	0	503	
9	0	0	0	0	471	
10	0	0	0	0	470	
11	0	0	0	0	482	
12	0	0	0	0	502	
13	0	0	0	0	444	
14	0	0	0	0	437	
15	0	0	0	0	388	
0	0	0	0	0	328	
1	0	0	0	0	323	
2	0	0	0	0	409	
3	0	0	0	0	468	
4	0	0	0	0	477	
5	0	0	0	0	537	
6	0	0	0	0	422	
7	0	0	0	0	474	
8	0	0	0	0	449	
9	0	0	0	0	503	
10	0	0	0	0	578	
11	0	0	0	0	594	
12	0	0	0	0	628	
13	0	0	0	0	549	
14	0	0	0	0	607	
15	0	0	0	0	617	
0	0	0	0	0	499	
1	0	0	0	0	481	
2	0	0	0	0	486	
3	0	0	0	0	550	
4	0	0	0	0	545	
5	0	0	0	0	537	
6	0	0	0	0	531	
7	0	0	0	0	611	
8	0	0	0	0	594	
9	0	0	0	0	647	
10	0	0	0	0	557	
11	0	0	0	0	519	
12	0	0	0	0	462	
13	0	0	0	0	538	
14	0	0	0	0	535	
15	0	0	0	0	520	
0	0	0	0	0	509	
1	0	0	0	0	527	
2	0	0	0	0	453	
3	0	0	0	0	301	
4	0	0	0	0	171	
5	0	0	0	0	35	
6	0	0	0	0	0	
7	0	0	0	0	0	
8	0	0	0	0	0	
9	0	0	0	0	0	
10	0	0	0	0	0	
11	0	0	0	0	0	
12	0	0	0	0	9	
13	0	0	0	0	89	
14	0	0	0	0	184	
15	0	0	0	0	256	
0	0	0	0	0	352	
1	0	0	0	0	422	
2	0	0	0	0	470	
3	0	0	0	0	491	
4	0	0	0	0	573	
5	0	0	0	0	622	
6	0	0	0	0	689	
7	0	0	0	0	727	
8	0	0	0	0	766	
9	0	0	0	0	975	
10	0	0	0	0	1021	
11	0	0	0	0	947	
12	0	0	0	0	907	
13	0	0	0	0	825	
14	0	0	0	0	746	
15	0	0	0	0	718	
0	0	0	0	0	739	
1	0	0	0	0	720	
2	0	0	0	0	760	
3	0	0	0	0	790	
4	0	0	0	0	796	
5	0	0	0	0	718	
6	0	0	0	0	723	
7	0	0	0	0	695	
8	0	0	0	0	709	
9	0	0	0	0	729	
10	0	0	0	0	724	
11	0	0	0	0	717	
12	0	0	0	0	715	
13	0	0	0	0	680	
14	0	0	0	0	624	
15	0	0	0	0	599	
0	0	0	0	0	517	
1	0	0	0	0	445	
2	0	0	0	0	376	
3	0	0	0	0	298	
4	0	0	0	0	263	
5	0	0	0	0	202	
6	0	0	0	0	119	
7	0	0	0	0	44	
8	0	0	0	0	63	
9	0	0	0	0	0	
10	0	0	0	0	0	
11	0	0	0	0	0	
12	0	0	0	0	40	
13	0	0	0	0	145	
14	0	0	0	0	161	
15	0	0	0	0	233	
0	0	0	0	0	312	
1	0	0	0	0	407	
2	0	0	0	0	502	
3	0	0	0	0	561	
4	0	0	0	0	595	
5	0	0	0	0	575	
6	0	0	0	0	669	
7	0	0	0	0	603	
8	0	0	0	0	588	
9	0	0	0	0	585	
10	0	0	0	0	591	
11	0	0	0	0	542	
12	0	0	0	0	493	
13	0	0	0	0	593	
14	0	0	0	0	591	
15	0	0	0	0	556	
0	0	0	0	0	568	
1	0	0	0	0	587	
2	0	0	0	0	589	
3	0	0	0	0	618	
4	0	0	0	0	594	
5	0	0	0	0	670	
6	0	0	0	0	572	
7	0	0	0	0	550	
8	0	0	0	0	565	
9	0	0	0	0	551	
10	0	0	0	0	567	
11	0	0	0	0	623	
12	0	0	0	0	585	
13	0	0	0	0	611	
14	0	0	0	0	602	
15	0	0	0	0	595	
0	0	0	0	0	628	
1	0	0	0	0	580	
2	0	0	0	0	562	
3	0	0	0	0	571	
4	0	0	0	0	549	
5	0	0	0	0	518	
6	0	0	0	0	537	
7	0	0	0	0	555	
8	0	0	0	0	509	
9	0	0	0	0	492	
10	0	0	0	0	448	
11	0	0	0	0	537	
12	0	0	0	0	567	
13	0	0	0	0	554	
14	0	0	0	0	519	
15	0	0	0	0	497	
0	0	0	0	0	584	
1	0	0	0	0	456	
2	0	0	0	0	459	
3	0	0	0	0	403	
4	0	0	0	0	364	
5	0	0	0	0	374	
6	0	0	0	0	390	
7	0	0	0	0	407	
8	0	0	0	0	544	
9	0	0	0	0	628	
10	0	0	0	0	860	
11	0	0	0	0	900	
12	0	0	0	0	866	
13	0	0	0	0	813	
14	0	0	0	0	807	
15	0	0	0	0	871	
0	0	0	0	0	1022	
1	0	0	0	0	1022	
2	0	0	0	0	1022	
3	0	0	0	0	1022	
4	0	0	0	0	1022	
5	0	0	0	0	1022	
6	0	0	0	0	1022	
7	0	0	0	0	1022	
8	0	0	0	0	1022	
9	0	0	0	0	1022	
10	0	0	0	0	1022	
11	0	0	0	0	1022	
12	0	0	0	0	1022	
13	0	0	0	0	1022	
14	0	0	0	0	1022	
15	0	0	0	0	1022	
0	0	0	0	0	1022	
1	0	0	0	0	1022	
2	0	0	0	0	1022	
3	0	0	0	0	1022	
4	0	0	0	0	1022	
5	0	0	0	0	1022	
6	0	0	0	0	950	
7	0	0	0	0	854	
8	0	0	0	0	689	
9	0	0	0	0	607	
10	0	0	0	0	590	
11	0	0	0	0	474	
12	0	0	0	0	455	
13	0	0	0	0	448	
14	0	0	0	0	377	
15	0	0	0	0	396	
0	0	0	0	0	364	
1	0	0	0	0	347	
2	0	0	0	0	378	
3	0	0	0	0	357	
4	0	0	0	0	289	
5	0	0	0	0	393	
6	0	0	0	0	400	
7	0	0	0	0	357	
8	0	0	0	0	399	
9	0	0	0	0	469	
10	0	0	0	0	461	
11	0	0	0	0	514	
12	0	0	0	0	512	
13	0	0	0	0	564	
14	0	0	0	0	537	
15	0	0	0	0	578	
0	0	0	0	0	574	
1	0	0	0	0	517	
2	0	0	0	0	567	
3	0	0	0	0	616	
4	0	0	0	0	594	
5	0	0	0	0	611	
6	0	0	0	0	586	
7	0	0	0	0	533	
8	0	0	0	0	515	
9	0	0	0	0	483	
10	0	0	0	0	487	
11	0	0	0	0	417	
12	0	0	0	0	391	
13	0	0	0	0	290	
14	0	0	0	0	202	
15	0	0	0	0	114	
0	0	0	0	0	40	
1	0	0	0	0	11	
2	0	0	0	0	0	
3	0	0	0	0	0	
4	0	0	0	0	0	
5	0	0	0	0	0	
6	0	0	0	0	9	
7	0	0	0	0	0	
8	0	0	0	0	44	
9	0	0	0	0	60	
10	0	0	0	0	100	
11	0	0	0	0	95	
12	0	0	0	0	145	
13	0	0	0	0	159	
14	0	0	0	0	129	
15	0	0	0	0	159	
0	0	0	0	0	174	
1	0	0	0	0	190	
2	0	0	0	0	185	
3	0	0	0	0	228	
4	0	0	0	0	206	
5	0	0	0	0	201	
6	0	0	0	0	215	
7	0	0	0	0	254	
8	0	0	0	0	231	
9	0	0	0	0	238	
10	0	0	0	0	279	
11	0	0	0	0	402	
12	0	0	0	0	302	
13	0	0	0	0	241	
14	0	0	0	0	203	
15	0	0	0	0	336	
0	0	0	0	0	262	
1	0	0	0	0	320	
2	0	0	0	0	322	
3	0	0	0	0	348	
4	0	0	0	0	348	
5	0	0	0	0	363	
6	0	0	0	0	369	
7	0	0	0	0	410	
8	0	0	0	0	348	
9	0	0	0	0	392	
10	0	0	0	0	383	
11	0	0	0	0	428	
12	0	0	0	0	429	
13	0	0	0	0	395	
14	0	0	0	0	389	
15	0	0	0	0	433	
0	0	0	0	0	402	
1	0	0	0	0	413	
2	0	0	0	0	440	
3	0	0	0	0	424	
4	0	0	0	0	382	
5	0	0	0	0	399	
6	0	0	0	0	375	
7	0	0	0	0	356	
8	0	0	0	0	365	
9	0	0	0	0	321	
10	0	0	0	0	321	
11	0	0	0	0	346	
12	0	0	0	0	343	
13	0	0	0	0	323	
14	0	0	0	0	302	
15	0	0	0	0	333	
0	0	0	0	0	353	
1	0	0	0	0	354	
2	0	0	0	0	380	
3	0	0	0	0	390	
4	0	0	0	0	399	
5	0	0	0	0	435	
6	0	0	0	0	456	
7	0	0	0	0	453	
8	0	0	0	0	460	
9	0	0	0	0	503	
10	0	0	0	0	459	
11	0	0	0	0	487	
12	0	0	0	0	495	
13	0	0	0	0	531	
14	0	0	0	0	497	
15	0	0	0	0	534	
0	0	0	0	0	529	
1	0	0	0	0	556	
2	0	0	0	0	538	
3	0	0	0	0	533	
4	0	0	0	0	558	
5	0	0	0	0	556	
6	0	0	0	0	563	
7	0	0	0	0	559	
8	0	0	0	0	579	
9	0	0	0	0	577	
10	0	0	0	0	572	
11	0	0	0	0	546	
12	0	0	0	0	567	
13	0	0	0	0	573	
14	0	0	0	0	575	
15	0	0	0	0	567	
0	0	0	0	0	552	
1	0	0	0	0	553	
2	0	0	0	0	537	
3	0	0	0	0	570	
4	0	0	0	0	543	
5	0	0	0	0	540	
6	0	0	0	0	524	
7	0	0	0	0	547	
8	0	0	0	0	542	
9	0	0	0	0	533	
10	0	0	0	0	543	
11	0	0	0	0	543	
12	0	0	0	0	542	
13	0	0	0	0	527	
14	0	0	0	0	522	
15	0	0	0	0	535	
0	0	0	0	0	507	
1	0	0	0	0	470	
2	0	0	0	0	596	
3	0	0	0	0	530	
4	0	0	0	0	499	
5	0	0	0	0	573	
6	0	0	0	0	650	
7	0	0	0	0	541	
8	0	0	0	0	511	
9	0	0	0	0	547	
10	0	0	0	0	528	
11	0	0	0	0	503	
12	0	0	0	0	545	
13	0	0	0	0	495	
14	0	0	0	0	538	
15	0	0	0	0	542	
0	0	0	0	0	522	
1	0	0	0	0	543	
2	0	0	0	0	533	
3	0	0	0	0	520	
4	0	0	0	0	532	
5	0	0	0	0	502	
6	0	0	0	0	525	
7	0	0	0	0	535	
8	0	0	0	0	516	
9	0	0	0	0	540	
10	0	0	0	0	513	
11	0	0	0	0	558	
12	0	0	0	0	529	
13	0	0	0	0	559	
14	0	0	0	0	533	
15	0	0	0	0	579	
0	0	0	0	0	495	
1	0	0	0	0	496	
2	0	0	0	0	460	
3	0	0	0	0	444	
4	0	0	0	0	449	
5	0	0	0	0	419	
6	0	0	0	0	405	
7	0	0	0	0	444	
8	0	0	0	0	423	
9	0	0	0	0	443	
10	0	0	0	0	483	
11	0	0	0	0	445	
12	0	0	0	0	454	
13	0	0	0	0	480	
14	0	0	0	0	474	
15	0	0	0	0	467	
0	0	0	0	0	471	
1	0	0	0	0	507	
2	0	0	0	0	519	
3	0	0	0	0	474	
4	0	0	0	0	490	
5	0	0	0	0	497	
6	0	0	0	0	547	
7	0	0	0	0	508	
8	0	0	0	0	520	
9	0	0	0	0	513	
10	0	0	0	0	513	
11	0	0	0	0	566	
12	0	0	0	0	522	
13	0	0	0	0	540	
14	0	0	0	0	538	
15	0	0	0	0	531	
0	0	0	0	0	517	
1	0	0	0	0	526	
2	0	0	0	0	538	
3	0	0	0	0	527	
4	0	0	0	0	525	
5	0	0	0	0	521	
6	0	0	0	0	523	
7	0	0	0	0	525	
8	0	0	0	0	511	
9	0	0	0	0	510	
10	0	0	0	0	500	
11	0	0	0	0	540	
12	0	0	0	0	516	
13	0	0	0	0	496	
14	0	0	0	0	500	
15	0	0	0	0	526	
0	0	0	0	0	495	
1	0	0	0	0	503	
2	0	0	0	0	510	
3	0	0	0	0	519	
4	0	0	0	0	512	
5	0	0	0	0	544	
6	0	0	0	0	510	
7	0	0	0	0	493	
8	0	0	0	0	582	
9	0	0	0	0	689	
10	0	0	0	0	554	
11	0	0	0	0	541	
12	0	0	0	0	521	
13	0	0	0	0	535	
14	0	0	0	0	534	
15	0	0	0	0	531	
0	0	0	0	0	516	
1	0	0	0	0	537	
2	0	0	0	0	538	
3	0	0	0	0	537	
4	0	0	0	0	526	
5	0	0	0	0	519	
6	0	0	0	0	528	
7	0	0	0	0	532	
8	0	0	0	0	538	
9	0	0	0	0	564	
10	0	0	0	0	527	
11	0	0	0	0	515	
12	0	0	0	0	528	
13	0	0	0	0	544	
14	0	0	0	0	550	
15	0	0	0	0	569	
0	0	0	0	0	550	
1	0	0	0	0	574	
2	0	0	0	0	550	
3	0	0	0	0	539	
4	0	0	0	0	504	
5	0	0	0	0	479	
6	0	0	0	0	459	
7	0	0	0	0	446	
8	0	0	0	0	451	
9	0	0	0	0	460	
10	0	0	0	0	455	
11	0	0	0	0	455	
12	0	0	0	0	458	
13	0	0	0	0	451	
14	0	0	0	0	458	
15	0	0	0	0	458	
0	0	0	0	0	495	
1	0	0	0	0	483	
2	0	0	0	0	482	
3	0	0	0	0	494	
4	0	0	0	0	494	
5	0	0	0	0	470	
6	0	0	0	0	498	
7	0	0	0	0	488	
8	0	0	0	0	502	
9	0	0	0	0	497	
10	0	0	0	0	496	
11	0	0	0	0	477	
12	0	0	0	0	504	
13	0	0	0	0	504	
14	0	0	0	0	524	
15	0	0	0	0	503	
0	0	0	0	0	509	
1	0	0	0	0	511	
2	0	0	0	0	505	
3	0	0	0	0	512	
4	0	0	0	0	507	
5	0	0	0	0	513	
6	0	0	0	0	508	
7	0	0	0	0	513	
8	0	0	0	0	505	
9	0	0	0	0	527	
10	0	0	0	0	504	
11	0	0	0	0	515	
12	0	0	0	0	527	
13	0	0	0	0	501	
14	0	0	0	0	524	
15	0	0	0	0	526	
0	0	0	0	0	511	
1	0	0	0	0	519	
2	0	0	0	0	522	
3	0	0	0	0	526	
4	0	0	0	0	518	
5	0	0	0	0	493	
6	0	0	0	0	527	
7	0	0	0	0	511	
8	0	0	0	0	531	
9	0	0	0	0	498	
10	0	0	0	0	490	
11	0	0	0	0	500	
12	0	0	0	0	595	
13	0	0	0	0	643	
14	0	0	0	0	509	
15	0	0	0	0	501	
0	0	0	0	0	501	
1	0	0	0	0	501	
2	0	0	0	0	496	
3	0	0	0	0	510	
4	0	0	0	0	513	
5	0	0	0	0	515	
6	0	0	0	0	507	
7	0	0	0	0	512	
8	0	0	0	0	524	
9	0	0	0	0	505	
10	0	0	0	0	515	
11	0	0	0	0	507	
12	0	0	0	0	500	
13	0	0	0	0	509	
14	0	0	0	0	511	
15	0	0	0	0	512	
0	0	0	0	0	505	
1	0	0	0	0	527	
2	0	0	0	0	545	
3	0	0	0	0	549	
4	0	0	0	0	568	
5	0	0	0	0	550	
6	0	0	0	0	537	
7	0	0	0	0	522	
8	0	0	0	0	494	
9	0	0	0	0	482	
10	0	0	0	0	468	
11	0	0	0	0	472	
12	0	0	0	0	470	
13	0	0	0	0	455	
14	0	0	0	0	469	
15	0	0	0	0	464	
0	0	0	0	0	481	
1	0	0	0	0	487	
2	0	0	0	0	484	
3	0	0	0	0	497	
4	0	0	0	0	502	
5	0	0	0	0	502	
6	0	0	0	0	499	
7	0	0	0	0	508	
8	0	0	0	0	500	
9	0	0	0	0	501	
10	0	0	0	0	515	
11	0	0	0	0	520	
12	0	0	0	0	509	
13	0	0	0	0	492	
14	0	0	0	0	526	
15	0	0	0	0	508	
0	0	0	0	0	496	
1	0	0	0	0	511	
2	0	0	0	0	510	
3	0	0	0	0	507	
4	0	0	0	0	516	
5	0	0	0	0	521	
6	0	0	0	0	504	
7	0	0	0	0	509	
8	0	0	0	0	512	
9	0	0	0	0	508	
10	0	0	0	0	505	
11	0	0	0	0	532	
12	0	0	0	0	499	
13	0	0	0	0	514	
14	0	0	0	0	494	
15	0	0	0	0	514	
0	0	0	0	0	512	
1	0	0	0	0	517	
2	0	0	0	0	523	
3	0	0	0	0	536	
4	0	0	0	0	516	
5	0	0	0	0	494	
6	0	0	0	0	516	
7	0	0	0	0	508	
8	0	0	0	0	521	
9	0	0	0	0	486	
10	0	0	0	0	524	
11	0	0	0	0	514	
12	0	0	0	0	501	
13	0	0	0	0	503	
14	0	0	0	0	495	
15	0	0	0	0	509	
0	0	0	0	0	593	
1	0	0	0	0	615	
2	0	0	0	0	532	
3	0	0	0	0	471	
4	0	0	0	0	509	
5	0	0	0	0	503	
6	0	0	0	0	498	
7	0	0	0	0	513	
8	0	0	0	0	503	
9	0	0	0	0	508	
10	0	0	0	0	527	
11	0	0	0	0	501	
12	0	0	0	0	503	
13	0	0	0	0	511	
14	0	0	0	0	532	
15	0	0	0	0	519	
0	0	0	0	0	517	
1	0	0	0	0	526	
2	0	0	0	0	536	
3	0	0	0	0	528	
4	0	0	0	0	547	
5	0	0	0	0	561	
6	0	0	0	0	554	
7	0	0	0	0	550	
8	0	0	0	0	555	
9	0	0	0	0	566	
10	0	0	0	0	533	
11	0	0	0	0	526	
12	0	0	0	0	519	
13	0	0	0	0	476	
14	0	0	0	0	471	
15	0	0	0	0	443	
0	0	0	0	0	441	
1	0	0	0	0	456	
2	0	0	0	0	454	
3	0	0	0	0	475	
4	0	0	0	0	472	
5	0	0	0	0	485	
6	0	0	0	0	465	
7	0	0	0	0	484	
8	0	0	0	0	496	
9	0	0	0	0	488	
10	0	0	0	0	506	
11	0	0	0	0	508	
12	0	0	0	0	499	
13	0	0	0	0	482	
14	0	0	0	0	510	
15	0	0	0	0	514	
0	0	0	0	0	506	
1	0	0	0	0	501	
2	0	0	0	0	542	
3	0	0	0	0	504	
4	0	0	0	0	493	
5	0	0	0	0	515	
6	0	0	0	0	497	
7	0	0	0	0	510	
8	0	0	0	0	506	
9	0	0	0	0	523	
10	0	0	0	0	512	
11	0	0	0	0	505	
12	0	0	0	0	503	
13	0	0	0	0	512	
14	0	0	0	0	508	
15	0	0	0	0	512	
0	0	0	0	0	510	
1	0	0	0	0	511	
2	0	0	0	0	515	
3	0	0	0	0	497	
4	0	0	0	0	519	
5	0	0	0	0	513	
6	0	0	0	0	502	
7	0	0	0	0	515	
8	0	0	0	0	501	
9	0	0	0	0	500	
10	0	0	0	0	503	
11	0	0	0	0	503	
12	0	0	0	0	524	
13	0	0	0	0	498	
14	0	0	0	0	535	
15	0	0	0	0	648	
0	0	0	0	0	553	
1	0	0	0	0	503	
2	0	0	0	0	480	
3	0	0	0	0	519	
4	0	0	0	0	504	
5	0	0	0	0	515	
6	0	0	0	0	506	
7	0	0	0	0	508	
8	0	0	0	0	528	
9	0	0	0	0	504	
10	0	0	0	0	515	
11	0	0	0	0	535	
12	0	0	0	0	508	
13	0	0	0	0	545	
14	0	0	0	0	541	
15	0	0	0	0	518	
0	0	0	0	0	548	
1	0	0	0	0	547	
2	0	0	0	0	561	
3	0	0	0	0	548	
4	0	0	0	0	577	
5	0	0	0	0	586	
6	0	0	0	0	579	
7	0	0	0	0	561	
8	0	0	0	0	582	
9	0	0	0	0	558	
10	0	0	0	0	533	
11	0	0	0	0	494	
12	0	0	0	0	482	
13	0	0	0	0	467	
14	0	0	0	0	458	
15	0	0	0	0	485	
0	0	0	0	0	463	
1	0	0	0	0	487	
2	0	0	0	0	477	
3	0	0	0	0	492	
4	0	0	0	0	520	
5	0	0	0	0	534	
6	0	0	0	0	514	
7	0	0	0	0	529	
8	0	0	0	0	529	
9	0	0	0	0	553	
10	0	0	0	0	543	
11	0	0	0	0	248	
12	0	0	0	0	74	
13	0	0	0	0	45	
14	0	0	0	0	71	
15	0	0	0	0	99	
0	0	0	0	0	137	
1	0	0	0	0	183	
2	0	0	0	0	221	
3	0	0	0	0	258	
4	0	0	0	0	307	
5	0	0	0	0	323	
6	0	0	0	0	368	
7	0	0	0	0	397	
8	0	0	0	0	411	
9	0	0	0	0	438	
10	0	0	0	0	487	
11	0	0	0	0	466	
12	0	0	0	0	513	
13	0	0	0	0	489	
14	0	0	0	0	528	
15	0	0	0	0	537	
0	0	0	0	0	542	
1	0	0	0	0	561	
2	0	0	0	0	574	
3	0	0	0	0	552	
4	0	0	0	0	579	
5	0	0	0	0	564	
6	0	0	0	0	584	
7	0	0	0	0	580	
8	0	0	0	0	573	
9	0	0	0	0	574	
10	0	0	0	0	583	
11	0	0	0	0	709	
12	0	0	0	0	642	
13	0	0	0	0	574	
14	0	0	0	0	585	
15	0	0	0	0	575	
0	0	0	0	0	593	
1	0	0	0	0	598	
2	0	0	0	0	561	
3	0	0	0	0	571	
4	0	0	0	0	587	
5	0	0	0	0	560	
6	0	0	0	0	580	
7	0	0	0	0	581	
8	0	0	0	0	570	
9	0	0	0	0	599	
10	0	0	0	0	593	
11	0	0	0	0	549	
12	0	0	0	0	569	
13	0	0	0	0	567	
14	0	0	0	0	594	
15	0	0	0	0	572	
0	0	0	0	0	587	
1	0	0	0	0	609	
2	0	0	0	0	609	
3	0	0	0	0	587	
4	0	0	0	0	593	
5	0	0	0	0	578	
6	0	0	0	0	536	
7	0	0	0	0	499	
8	0	0	0	0	498	
9	0	0	0	0	499	
10	0	0	0	0	465	
11	0	0	0	0	492	
12	0	0	0	0	487	
13	0	0	0	0	457	
14	0	0	0	0	491	
15	0	0	0	0	490	
0	0	0	0	0	500	
1	0	0	0	0	517	
2	0	0	0	0	504	
3	0	0	0	0	491	
4	0	0	0	0	502	
5	0	0	0	0	509	
6	0	0	0	0	527	
7	0	0	0	0	511	
8	0	0	0	0	511	
9	0	0	0	0	517	
10	0	0	0	0	522	
11	0	0	0	0	531	
12	0	0	0	0	507	
13	0	0	0	0	518	
14	0	0	0	0	533	
15	0	0	0	0	529	
0	0	0	0	0	523	
1	0	0	0	0	535	
2	0	0	0	0	508	
3	0	0	0	0	537	
4	0	0	0	0	500	
5	0	0	0	0	517	
6	0	0	0	0	518	
7	0	0	0	0	529	
8	0	0	0	0	533	
9	0	0	0	0	515	
10	0	0	0	0	529	
11	0	0	0	0	496	
12	0	0	0	0	510	
13	0	0	0	0	494	
14	0	0	0	0	522	
15	0	0	0	0	483	
0	0	0	0	0	499	
1	0	0	0	0	526	
2	0	0	0	0	529	
3	0	0	0	0	519	
4	0	0	0	0	489	
5	0	0	0	0	497	
6	0	0	0	0	505	
7	0	0	0	0	521	
8	0	0	0	0	485	
9	0	0	0	0	498	
10	0	0	0	0	483	
11	0	0	0	0	492	
12	0	0	0	0	587	
13	0	0	0	0	635	
14	0	0	0	0	520	
15	0	0	0	0	496	
0	0	0	0	0	475	
1	0	0	0	0	501	
2	0	0	0	0	519	
3	0	0	0	0	485	
4	0	0	0	0	510	
5	0	0	0	0	510	
6	0	0	0	0	528	
7	0	0	0	0	506	
8	0	0	0	0	507	
9	0	0	0	0	523	
10	0	0	0	0	500	
11	0	0	0	0	507	
12	0	0	0	0	536	
13	0	0	0	0	508	
14	0	0	0	0	531	
15	0	0	0	0	534	
0	0	0	0	0	518	
1	0	0	0	0	550	
2	0	0	0	0	527	
3	0	0	0	0	535	
4	0	0	0	0	547	
5	0	0	0	0	562	
6	0	0	0	0	548	
7	0	0	0	0	523	
8	0	0	0	0	516	
9	0	0	0	0	453	
10	0	0	0	0	432	
11	0	0	0	0	431	
12	0	0	0	0	443	
13	0	0	0	0	454	
14	0	0	0	0	422	
15	0	0	0	0	405	
0	0	0	0	0	387	
1	0	0	0	0	415	
2	0	0	0	0	403	
3	0	0	0	0	403	
4	0	0	0	0	430	
5	0	0	0	0	455	
6	0	0	0	0	444	
7	0	0	0	0	446	
8	0	0	0	0	477	
9	0	0	0	0	468	
10	0	0	0	0	462	
11	0	0	0	0	461	
12	0	0	0	0	481	
13	0	0	0	0	472	
14	0	0	0	0	497	
15	0	0	0	0	509	
0	0	0	0	0	512	
1	0	0	0	0	491	
2	0	0	0	0	492	
3	0	0	0	0	510	
4	0	0	0	0	523	
5	0	0	0	0	510	
6	0	0	0	0	521	
7	0	0	0	0	526	
8	0	0	0	0	512	
9	0	0	0	0	531	
10	0	0	0	0	515	
11	0	0	0	0	549	
12	0	0	0	0	533	
13	0	0	0	0	534	
14	0	0	0	0	540	
15	0	0	0	0	559	
0	0	0	0	0	520	
1	0	0	0	0	531	
2	0	0	0	0	549	
3	0	0	0	0	537	
4	0	0	0	0	547	
5	0	0	0	0	519	
6	0	0	0	0	553	
7	0	0	0	0	521	
8	0	0	0	0	540	
9	0	0	0	0	513	
10	0	0	0	0	524	
11	0	0	0	0	546	
12	0	0	0	0	683	
13	0	0	0	0	606	
14	0	0	0	0	493	
15	0	0	0	0	509	
0	0	0	0	0	521	
1	0	0	0	0	521	
2	0	0	0	0	516	
3	0	0	0	0	521	
4	0	0	0	0	549	
5	0	0	0	0	529	
6	0	0	0	0	520	
7	0	0	0	0	525	
8	0	0	0	0	537	
9	0	0	0	0	534	
10	0	0	0	0	524	
11	0	0	0	0	542	
12	0	0	0	0	541	
13	0	0	0	0	536	
14	0	0	0	0	542	
15	0	0	0	0	535	
0	0	0	0	0	555	
1	0	0	0	0	575	
2	0	0	0	0	556	
3	0	0	0	0	575	
4	0	0	0	0	574	
5	0	0	0	0	548	
6	0	0	0	0	538	
7	0	0	0	0	515	
8	0	0	0	0	490	
9	0	0	0	0	437	
10	0	0	0	0	464	
11	0	0	0	0	458	
12	0	0	0	0	455	
13	0	0	0	0	449	
14	0	0	0	0	484	
15	0	0	0	0	468	
0	0	0	0	0	468	
1	0	0	0	0	476	
2	0	0	0	0	484	
3	0	0	0	0	496	
4	0	0	0	0	511	
5	0	0	0	0	512	
6	0	0	0	0	511	
7	0	0	0	0	476	
8	0	0	0	0	503	
9	0	0	0	0	506	
10	0	0	0	0	501	
11	0	0	0	0	506	
12	0	0	0	0	505	
13	0	0	0	0	528	
14	0	0	0	0	507	
15	0	0	0	0	501	
0	0	0	0	0	510	
1	0	0	0	0	496	
2	0	0	0	0	511	
3	0	0	0	0	514	
4	0	0	0	0	497	
5	0	0	0	0	505	
6	0	0	0	0	500	
7	0	0	0	0	504	
8	0	0	0	0	516	
9	0	0	0	0	513	
10	0	0	0	0	540	
11	0	0	0	0	501	
12	0	0	0	0	489	
13	0	0	0	0	498	
14	0	0	0	0	532	
15	0	0	0	0	492	
0	0	0	0	0	508	
1	0	0	0	0	526	
2	0	0	0	0	483	
3	0	0	0	0	488	
4	0	0	0	0	468	
5	0	0	0	0	547	
6	0	0	0	0	639	
7	0	0	0	0	540	
8	0	0	0	0	501	
9	0	0	0	0	499	
10	0	0	0	0	515	
11	0	0	0	0	501	
12	0	0	0	0	505	
13	0	0	0	0	508	
14	0	0	0	0	500	
15	0	0	0	0	516	
0	0	0	0	0	523	
1	0	0	0	0	508	
2	0	0	0	0	525	
3	0	0	0	0	525	
4	0	0	0	0	496	
5	0	0	0	0	526	
6	0	0	0	0	527	
7	0	0	0	0	521	
8	0	0	0	0	542	
9	0	0	0	0	537	
10	0	0	0	0	558	
11	0	0	0	0	528	
12	0	0	0	0	568	
13	0	0	0	0	565	
14	0	0	0	0	563	
15	0	0	0	0	546	
0	0	0	0	0	540	
1	0	0	0	0	515	
2	0	0	0	0	472	
3	0	0	0	0	440	
4	0	0	0	0	464	
5	0	0	0	0	456	
6	0	0	0	0	449	
7	0	0	0	0	459	
8	0	0	0	0	461	
9	0	0	0	0	457	
10	0	0	0	0	469	
11	0	0	0	0	484	
12	0	0	0	0	481	
13	0	0	0	0	481	
14	0	0	0	0	492	
15	0	0	0	0	479	
0	0	0	0	0	507	
1	0	0	0	0	491	
2	0	0	0	0	508	
3	0	0	0	0	488	
4	0	0	0	0	510	
5	0	0	0	0	495	
6	0	0	0	0	500	
7	0	0	0	0	491	
8	0	0	0	0	512	
9	0	0	0	0	510	
10	0	0	0	0	490	
11	0	0	0	0	511	
12	0	0	0	0	502	
13	0	0	0	0	504	
14	0	0	0	0	497	
15	0	0	0	0	512	
0	0	0	0	0	505	
1	0	0	0	0	512	
2	0	0	0	0	528	
3	0	0	0	0	491	
4	0	0	0	0	511	
5	0	0	0	0	523	
6	0	0	0	0	516	
7	0	0	0	0	513	
8	0	0	0	0	521	
9	0	0	0	0	519	
10	0	0	0	0	512	
11	0	0	0	0	511	
12	0	0	0	0	535	
13	0	0	0	0	499	
14	0	0	0	0	513	
15	0	0	0	0	494	
0	0	0	0	0	529	
1	0	0	0	0	501	
2	0	0	0	0	492	
3	0	0	0	0	542	
4	0	0	0	0	673	
5	0	0	0	0	526	
6	0	0	0	0	494	
7	0	0	0	0	534	
8	0	0	0	0	498	
9	0	0	0	0	499	
10	0	0	0	0	506	
11	0	0	0	0	506	
12	0	0	0	0	536	
13	0	0	0	0	500	
14	0	0	0	0	512	
15	0	0	0	0	509	
0	0	0	0	0	529	
1	0	0	0	0	513	
2	0	0	0	0	521	
3	0	0	0	0	518	
4	0	0	0	0	518	
5	0	0	0	0	524	
6	0	0	0	0	557	
7	0	0	0	0	529	
8	0	0	0	0	548	
9	0	0	0	0	539	
10	0	0	0	0	549	
11	0	0	0	0	561	
12	0	0	0	0	581	
13	0	0	0	0	549	
14	0	0	0	0	515	
15	0	0	0	0	498	
0	0	0	0	0	473	
1	0	0	0	0	463	
2	0	0	0	0	468	
3	0	0	0	0	460	
4	0	0	0	0	472	
5	0	0	0	0	456	
6	0	0	0	0	477	
7	0	0	0	0	460	
8	0	0	0	0	480	
9	0	0	0	0	496	
10	0	0	0	0	495	
11	0	0	0	0	476	
12	0	0	0	0	493	
13	0	0	0	0	494	
14	0	0	0	0	509	
15	0	0	0	0	513	
0	0	0	0	0	512	
1	0	0	0	0	512	
2	0	0	0	0	512	
3	0	0	0	0	503	
4	0	0	0	0	506	
5	0	0	0	0	490	
6	0	0	0	0	520	
7	0	0	0	0	513	
8	0	0	0	0	524	
9	0	0	0	0	516	
10	0	0	0	0	506	
11	0	0	0	0	513	
12	0	0	0	0	520	
13	0	0	0	0	515	
14	0	0	0	0	503	
15	0	0	0	0	529	
0	0	0	0	0	514	
1	0	0	0	0	505	
2	0	0	0	0	522	
3	0	0	0	0	504	
4	0	0	0	0	512	
5	0	0	0	0	528	
6	0	0	0	0	519	
7	0	0	0	0	516	
8	0	0	0	0	513	
9	0	0	0	0	507	
10	0	0	0	0	522	
11	0	0	0	0	503	
12	0	0	0	0	535	
13	0	0	0	0	506	
14	0	0	0	0	526	
15	0	0	0	0	505	
0	0	0	0	0	522	
1	0	0	0	0	504	
2	0	0	0	0	548	
3	0	0	0	0	510	
4	0	0	0	0	526	
5	0	0	0	0	504	
6	0	0	0	0	516	
7	0	0	0	0	516	
8	0	0	0	0	515	
9	0	0	0	0	528	
10	0	0	0	0	494	
11	0	0	0	0	503	
12	0	0	0	0	615	
13	0	0	0	0	588	
14	0	0	0	0	533	
15	0	0	0	0	492	
0	0	0	0	0	506	
1	0	0	0	0	492	
2	0	0	0	0	524	
3	0	0	0	0	501	
4	0	0	0	0	500	
5	0	0	0	0	502	
6	0	0	0	0	539	
7	0	0	0	0	514	
8	0	0	0	0	507	
9	0	0	0	0	512	
10	0	0	0	0	526	
11	0	0	0	0	510	
12	0	0	0	0	524	
13	0	0	0	0	519	
14	0	0	0	0	536	
15	0	0	0	0	532	
0	0	0	0	0	534	
1	0	0	0	0	536	
2	0	0	0	0	566	
3	0	0	0	0	567	
4	0	0	0	0	563	
5	0	0	0	0	557	
6	0	0	0	0	568	
7	0	0	0	0	529	
8	0	0	0	0	504	
9	0	0	0	0	462	
10	0	0	0	0	472	
11	0	0	0	0	469	
12	0	0	0	0	465	
13	0	0	0	0	466	
14	0	0	0	0	488	
15	0	0	0	0	470	
0	0	0	0	0	484	
1	0	0	0	0	476	
2	0	0	0	0	491	
3	0	0	0	0	489	
4	0	0	0	0	495	
5	0	0	0	0	490	
6	0	0	0	0	518	
7	0	0	0	0	514	
8	0	0	0	0	507	
9	0	0	0	0	516	
10	0	0	0	0	526	
11	0	0	0	0	500	
12	0	0	0	0	511	
13	0	0	0	0	510	
14	0	0	0	0	536	
15	0	0	0	0	497	
0	0	0	0	0	549	
1	0	0	0	0	508	
2	0	0	0	0	527	
3	0	0	0	0	514	
4	0	0	0	0	534	
5	0	0	0	0	514	
6	0	0	0	0	555	
7	0	0	0	0	536	
8	0	0	0	0	534	
9	0	0	0	0	521	
10	0	0	0	0	532	
11	0	0	0	0	527	
12	0	0	0	0	531	
13	0	0	0	0	544	
14	0	0	0	0	538	
15	0	0	0	0	539	
0	0	0	0	0	531	
1	0	0	0	0	540	
2	0	0	0	0	535	
3	0	0	0	0	521	
4	0	0	0	0	561	
5	0	0	0	0	526	
6	0	0	0	0	531	
7	0	0	0	0	548	
8	0	0	0	0	526	
9	0	0	0	0	527	
10	0	0	0	0	546	
11	0	0	0	0	543	
12	0	0	0	0	550	
13	0	0	0	0	535	
14	0	0	0	0	544	
15	0	0	0	0	542	
0	0	0	0	0	545	
1	0	0	0	0	536	
2	0	0	0	0	538	
3	0	0	0	0	521	
4	0	0	0	0	521	
5	0	0	0	0	543	
6	0	0	0	0	539	
7	0	0	0	0	538	
8	0	0	0	0	517	
9	0	0	0	0	520	
10	0	0	0	0	674	
11	0	0	0	0	594	
12	0	0	0	0	527	
13	0	0	0	0	515	
14	0	0	0	0	521	
15	0	0	0	0	534	
0	0	0	0	0	517	
1	0	0	0	0	530	
2	0	0	0	0	532	
3	0	0	0	0	536	
4	0	0	0	0	539	
5	0	0	0	0	522	
6	0	0	0	0	531	
7	0	0	0	0	515	
8	0	0	0	0	549	
9	0	0	0	0	527	
10	0	0	0	0	547	
11	0	0	0	0	549	
12	0	0	0	0	564	
13	0	0	0	0	553	
14	0	0	0	0	561	
15	0	0	0	0	535	
0	0	0	0	0	578	
1	0	0	0	0	575	
2	0	0	0	0	600	
3	0	0	0	0	569	
4	0	0	0	0	572	
5	0	0	0	0	540	
6	0	0	0	0	496	
7	0	0	0	0	465	
8	0	0	0	0	486	
9	0	0	0	0	453	
10	0	0	0	0	479	
11	0	0	0	0	448	
12	0	0	0	0	483	
13	0	0	0	0	460	
14	0	0	0	0	459	
15	0	0	0	0	487	
0	0	0	0	0	479	
1	0	0	0	0	469	
2	0	0	0	0	494	
3	0	0	0	0	494	
4	0	0	0	0	494	
5	0	0	0	0	493	
6	0	0	0	0	488	
7	0	0	0	0	490	
8	0	0	0	0	501	
9	0	0	0	0	480	
10	0	0	0	0	512	
11	0	0	0	0	492	
12	0	0	0	0	492	
13	0	0	0	0	483	
14	0	0	0	0	490	
15	0	0	0	0	480	
0	0	0	0	0	476	
1	0	0	0	0	501	
2	0	0	0	0	501	
3	0	0	0	0	480	
4	0	0	0	0	492	
5	0	0	0	0	482	
6	0	0	0	0	509	
7	0	0	0	0	470	
8	0	0	0	0	500	
9	0	0	0	0	485	
10	0	0	0	0	496	
11	0	0	0	0	496	
12	0	0	0	0	487	
13	0	0	0	0	483	
14	0	0	0	0	487	
15	0	0	0	0	494	
0	0	0	0	0	498	
1	0	0	0	0	488	
2	0	0	0	0	523	
3	0	0	0	0	492	
4	0	0	0	0	475	
5	0	0	0	0	473	
6	0	0	0	0	487	
7	0	0	0	0	478	
8	0	0	0	0	499	
9	0	0	0	0	493	
10	0	0	0	0	510	
11	0	0	0	0	477	
12	0	0	0	0	476	
13	0	0	0	0	560	
14	0	0	0	0	600	
15	0	0	0	0	512	
0	0	0	0	0	467	
1	0	0	0	0	479	
2	0	0	0	0	489	
3	0	0	0	0	483	
4	0	0	0	0	501	
5	0	0	0	0	483	
6	0	0	0	0	515	
7	0	0	0	0	513	
8	0	0	0	0	480	
9	0	0	0	0	498	
10	0	0	0	0	508	
11	0	0	0	0	513	
12	0	0	0	0	499	
13	0	0	0	0	504	
14	0	0	0	0	532	
15	0	0	0	0	494	
0	0	0	0	0	500	
1	0	0	0	0	524	
2	0	0	0	0	528	
3	0	0	0	0	536	
4	0	0	0	0	543	
5	0	0	0	0	547	
6	0	0	0	0	524	
7	0	0	0	0	534	
8	0	0	0	0	502	
9	0	0	0	0	477	
10	0	0	0	0	478	
11	0	0	0	0	447	
12	0	0	0	0	438	
13	0	0	0	0	464	
14	0	0	0	0	436	
15	0	0	0	0	451	
0	0	0	0	0	466	
1	0	0	0	0	448	
2	0	0	0	0	455	
3	0	0	0	0	450	
4	0	0	0	0	474	
5	0	0	0	0	476	
6	0	0	0	0	498	
7	0	0	0	0	481	
8	0	0	0	0	472	
9	0	0	0	0	490	
10	0	0	0	0	493	
11	0	0	0	0	493	
12	0	0	0	0	507	
13	0	0	0	0	488	
14	0	0	0	0	512	
15	0	0	0	0	502	
0	0	0	0	0	515	
1	0	0	0	0	508	
2	0	0	0	0	507	
3	0	0	0	0	502	
4	0	0	0	0	515	
5	0	0	0	0	512	
6	0	0	0	0	511	
7	0	0	0	0	512	
8	0	0	0	0	505	
9	0	0	0	0	512	
10	0	0	0	0	536	
11	0	0	0	0	496	
12	0	0	0	0	512	
13	0	0	0	0	516	
14	0	0	0	0	519	
15	0	0	0	0	491	
0	0	0	0	0	529	
1	0	0	0	0	507	
2	0	0	0	0	499	
3	0	0	0	0	504	
4	0	0	0	0	519	
5	0	0	0	0	494	
6	0	0	0	0	502	
7	0	0	0	0	520	
8	0	0	0	0	508	
9	0	0	0	0	507	
10	0	0	0	0	514	
11	0	0	0	0	509	
12	0	0	0	0	514	
13	0	0	0	0	501	
14	0	0	0	0	508	
15	0	0	0	0	501	
0	0	0	0	0	497	
1	0	0	0	0	509	
2	0	0	0	0	511	
3	0	0	0	0	508	
4	0	0	0	0	480	
5	0	0	0	0	502	
6	0	0	0	0	662	
7	0	0	0	0	555	
8	0	0	0	0	513	
9	0	0	0	0	487	
10	0	0	0	0	508	
11	0	0	0	0	500	
12	0	0	0	0	484	
13	0	0	0	0	499	
14	0	0	0	0	508	
15	0	0	0	0	496	
0	0	0	0	0	502	
1	0	0	0	0	502	
2	0	0	0	0	503	
3	0	0	0	0	510	
4	0	0	0	0	509	
5	0	0	0	0	509	
6	0	0	0	0	515	
7	0	0	0	0	532	
8	0	0	0	0	518	
9	0	0	0	0	521	
10	0	0	0	0	530	
11	0	0	0	0	539	
12	0	0	0	0	551	
13	0	0	0	0	561	
14	0	0	0	0	565	
15	0	0	0	0	537	
0	0	0	0	0	547	
1	0	0	0	0	534	
2	0	0	0	0	484	
3	0	0	0	0	474	
4	0	0	0	0	471	
5	0	0	0	0	455	
6	0	0	0	0	471	
7	0	0	0	0	451	
8	0	0	0	0	465	
9	0	0	0	0	480	
10	0	0	0	0	475	
11	0	0	0	0	473	
12	0	0	0	0	483	
13	0	0	0	0	488	
14	0	0	0	0	487	
15	0	0	0	0	492	
0	0	0	0	0	499	
1	0	0	0	0	492	
2	0	0	0	0	483	
3	0	0	0	0	503	
4	0	0	0	0	499	
5	0	0	0	0	498	
6	0	0	0	0	512	
7	0	0	0	0	497	
8	0	0	0	0	513	
9	0	0	0	0	508	
10	0	0	0	0	486	
11	0	0	0	0	494	
12	0	0	0	0	500	
13	0	0	0	0	489	
14	0	0	0	0	516	
15	0	0	0	0	525	
0	0	0	0	0	498	
1	0	0	0	0	491	
2	0	0	0	0	508	
3	0	0	0	0	488	
4	0	0	0	0	506	
5	0	0	0	0	512	
6	0	0	0	0	529	
7	0	0	0	0	505	
8	0	0	0	0	487	
9	0	0	0	0	497	
10	0	0	0	0	510	
11	0	0	0	0	509	
12	0	0	0	0	508	
13	0	0	0	0	510	
14	0	0	0	0	518	
15	0	0	0	0	496	
0	0	0	0	0	511	
1	0	0	0	0	502	
2	0	0	0	0	515	
3	0	0	0	0	503	
4	0	0	0	0	517	
5	0	0	0	0	513	
6	0	0	0	0	500	
7	0	0	0	0	512	
8	0	0	0	0	514	
9	0	0	0	0	503	
10	0	0	0	0	518	
11	0	0	0	0	512	
12	0	0	0	0	507	
13	0	0	0	0	496	
14	0	0	0	0	494	
15	0	0	0	0	501	
0	0	0	0	0	500	
1	0	0	0	0	513	
2	0	0	0	0	475	
3	0	0	0	0	521	
4	0	0	0	0	659	
5	0	0	0	0	553	
6	0	0	0	0	506	
7	0	0	0	0	487	
8	0	0	0	0	497	
9	0	0	0	0	491	
10	0	0	0	0	523	
11	0	0	0	0	494	
12	0	0	0	0	518	
13	0	0	0	0	492	
14	0	0	0	0	510	
15	0	0	0	0	507	
0	0	0	0	0	511	
1	0	0	0	0	506	
2	0	0	0	0	515	
3	0	0	0	0	512	
4	0	0	0	0	514	
5	0	0	0	0	515	
6	0	0	0	0	541	
7	0	0	0	0	521	
8	0	0	0	0	531	
9	0	0	0	0	540	
10	0	0	0	0	540	
11	0	0	0	0	554	
12	0	0	0	0	574	
13	0	0	0	0	539	
14	0	0	0	0	560	
15	0	0	0	0	520	
0	0	0	0	0	502	
1	0	0	0	0	476	
2	0	0	0	0	479	
3	0	0	0	0	453	
4	0	0	0	0	465	
5	0	0	0	0	442	
6	0	0	0	0	462	
7	0	0	0	0	466	
8	0	0	0	0	482	
9	0	0	0	0	475	
10	0	0	0	0	483	
11	0	0	0	0	480	
12	0	0	0	0	486	
13	0	0	0	0	479	
14	0	0	0	0	508	
15	0	0	0	0	498	
0	0	0	0	0	496	
1	0	0	0	0	519	
2	0	0	0	0	494	
3	0	0	0	0	492	
4	0	0	0	0	510	
5	0	0	0	0	510	
6	0	0	0	0	504	
7	0	0	0	0	524	
8	0	0	0	0	504	
9	0	0	0	0	510	
10	0	0	0	0	508	
11	0	0	0	0	509	
12	0	0	0	0	515	
13	0	0	0	0	500	
14	0	0	0	0	519	
15	0	0	0	0	521	
0	0	0	0	0	503	
1	0	0	0	0	517	
2	0	0	0	0	505	
3	0	0	0	0	504	
4	0	0	0	0	523	
5	0	0	0	0	505	
6	0	0	0	0	518	
7	0	0	0	0	521	
8	0	0	0	0	506	
9	0	0	0	0	526	
10	0	0	0	0	508	
11	0	0	0	0	510	
12	0	0	0	0	521	
13	0	0	0	0	501	
14	0	0	0	0	514	
15	0	0	0	0	507	
0	0	0	0	0	535	
1	0	0	0	0	499	
2	0	0	0	0	518	
3	0	0	0	0	522	
4	0	0	0	0	503	
5	0	0	0	0	504	
6	0	0	0	0	514	
7	0	0	0	0	524	
8	0	0	0	0	509	
9	0	0	0	0	498	
10	0	0	0	0	526	
11	0	0	0	0	479	
12	0	0	0	0	492	
13	0	0	0	0	491	
14	0	0	0	0	511	
15	0	0	0	0	507	
0	0	0	0	0	496	
1	0	0	0	0	515	
2	0	0	0	0	593	
3	0	0	0	0	559	
4	0	0	0	0	511	
5	0	0	0	0	476	
6	0	0	0	0	488	
7	0	0	0	0	498	
8	0	0	0	0	514	
9	0	0	0	0	514	
10	0	0	0	0	517	
11	0	0	0	0	484	
12	0	0	0	0	498	
13	0	0	0	0	513	
14	0	0	0	0	502	
15	0	0	0	0	509	
0	0	0	0	0	528	
1	0	0	0	0	519	
2	0	0	0	0	523	
3	0	0	0	0	505	
4	0	0	0	0	527	
5	0	0	0	0	516	
6	0	0	0	0	531	
7	0	0	0	0	552	
8	0	0	0	0	550	
9	0	0	0	0	541	
10	0	0	0	0	565	
11	0	0	0	0	535	
12	0	0	0	0	554	
13	0	0	0	0	540	
14	0	0	0	0	508	
15	0	0	0	0	491	
0	0	0	0	0	452	
1	0	0	0	0	453	
2	0	0	0	0	457	
3	0	0	0	0	484	
4	0	0	0	0	473	
5	0	0	0	0	476	
6	0	0	0	0	484	
7	0	0	0	0	475	
8	0	0	0	0	487	
9	0	0	0	0	478	
10	0	0	0	0	496	
11	0	0	0	0	497	
12	0	0	0	0	499	
13	0	0	0	0	489	
14	0	0	0	0	508	
15	0	0	0	0	500	
0	0	0	0	0	501	
1	0	0	0	0	512	
2	0	0	0	0	510	
3	0	0	0	0	492	
4	0	0	0	0	542	
5	0	0	0	0	491	
6	0	0	0	0	504	
7	0	0	0	0	519	
8	0	0	0	0	515	
9	0	0	0	0	511	
10	0	0	0	0	518	
11	0	0	0	0	503	
12	0	0	0	0	527	
13	0	0	0	0	525	
14	0	0	0	0	499	
15	0	0	0	0	518	
0	0	0	0	0	528	
1	0	0	0	0	498	
2	0	0	0	0	509	
3	0	0	0	0	501	
4	0	0	0	0	528	
5	0	0	0	0	491	
6	0	0	0	0	521	
7	0	0	0	0	510	
8	0	0	0	0	517	
9	0	0	0	0	519	
10	0	0	0	0	506	
11	0	0	0	0	530	
12	0	0	0	0	502	
13	0	0	0	0	505	
14	0	0	0	0	514	
15	0	0	0	0	492	
0	0	0	0	0	508	
1	0	0	0	0	511	
2	0	0	0	0	512	
3	0	0	0	0	521	
4	0	0	0	0	512	
5	0	0	0	0	505	
6	0	0	0	0	518	
7	0	0	0	0	485	
8	0	0	0	0	502	
9	0	0	0	0	512	
10	0	0	0	0	502	
11	0	0	0	0	501	
12	0	0	0	0	514	
13	0	0	0	0	498	
14	0	0	0	0	481	
15	0	0	0	0	535	
0	0	0	0	0	650	
1	0	0	0	0	529	
2	0	0	0	0	511	
3	0	0	0	0	512	
4	0	0	0	0	504	
5	0	0	0	0	509	
6	0	0	0	0	508	
7	0	0	0	0	506	
8	0	0	0	0	510	
9	0	0	0	0	527	
10	0	0	0	0	513	
11	0	0	0	0	527	
12	0	0	0	0	509	
13	0	0	0	0	525	
14	0	0	0	0	519	
15	0	0	0	0	512	
0	0	0	0	0	533	
1	0	0	0	0	538	
2	0	0	0	0	520	
3	0	0	0	0	520	
4	0	0	0	0	538	
5	0	0	0	0	548	
6	0	0	0	0	561	
7	0	0	0	0	538	
8	0	0	0	0	563	
9	0	0	0	0	534	
10	0	0	0	0	528	
11	0	0	0	0	518	
12	0	0	0	0	515	
13	0	0	0	0	498	
14	0	0	0	0	480	
15	0	0	0	0	482	
0	0	0	0	0	467	
1	0	0	0	0	456	
2	0	0	0	0	473	
3	0	0	0	0	476	
4	0	0	0	0	490	
5	0	0	0	0	472	
6	0	0	0	0	510	
7	0	0	0	0	496	
8	0	0	0	0	478	
9	0	0	0	0	485	
10	0	0	0	0	503	
11	0	0	0	0	498	
12	0	0	0	0	524	
13	0	0	0	0	494	
14	0	0	0	0	501	
15	0	0	0	0	499	
0	0	0	0	0	509	
1	0	0	0	0	518	
2	0	0	0	0	515	
3	0	0	0	0	509	
4	0	0	0	0	502	
5	0	0	0	0	509	
6	0	0	0	0	502	
7	0	0	0	0	512	
8	0	0	0	0	526	
9	0	0	0	0	496	
10	0	0	0	0	525	
11	0	0	0	0	497	
12	0	0	0	0	496	
13	0	0	0	0	500	
14	0	0	0	0	523	
15	0	0	0	0	514	
0	0	0	0	0	533	
1	0	0	0	0	507	
2	0	0	0	0	510	
3	0	0	0	0	501	
4	0	0	0	0	509	
5	0	0	0	0	508	
6	0	0	0	0	511	
7	0	0	0	0	515	
8	0	0	0	0	509	
9	0	0	0	0	508	
10	0	0	0	0	525	
11	0	0	0	0	502	
12	0	0	0	0	504	
13	0	0	0	0	507	
14	0	0	0	0	524	
15	0	0	0	0	516	
0	0	0	0	0	507	
1	0	0	0	0	499	
2	0	0	0	0	516	
3	0	0	0	0	508	
4	0	0	0	0	539	
5	0	0	0	0	502	
6	0	0	0	0	508	
7	0	0	0	0	496	
8	0	0	0	0	519	
9	0	0	0	0	491	
10	0	0	0	0	520	
11	0	0	0	0	497	
12	0	0	0	0	501	
13	0	0	0	0	524	
14	0	0	0	0	644	
15	0	0	0	0	527	
0	0	0	0	0	493	
1	0	0	0	0	487	
2	0	0	0	0	500	
3	0	0	0	0	513	
4	0	0	0	0	507	
5	0	0	0	0	502	
6	0	0	0	0	513	
7	0	0	0	0	512	
8	0	0	0	0	520	
9	0	0	0	0	529	
10	0	0	0	0	518	
11	0	0	0	0	490	
12	0	0	0	0	504	
13	0	0	0	0	516	
14	0	0	0	0	516	
15	0	0	0	0	527	
0	0	0	0	0	548	
1	0	0	0	0	525	
2	0	0	0	0	539	
3	0	0	0	0	535	
4	0	0	0	0	578	
5	0	0	0	0	547	
6	0	0	0	0	558	
7	0	0	0	0	545	
8	0	0	0	0	546	
9	0	0	0	0	540	
10	0	0	0	0	494	
11	0	0	0	0	482	
12	0	0	0	0	487	
13	0	0	0	0	448	
14	0	0	0	0	474	
15	0	0	0	0	472	
0	0	0	0	0	490	
1	0	0	0	0	473	
2	0	0	0	0	452	
3	0	0	0	0	477	
4	0	0	0	0	478	
5	0	0	0	0	486	
6	0	0	0	0	492	
7	0	0	0	0	501	
8	0	0	0	0	508	
9	0	0	0	0	487	
10	0	0	0	0	488	
11	0	0	0	0	483	
12	0	0	0	0	493	
13	0	0	0	0	504	
14	0	0	0	0	490	
15	0	0	0	0	512	
0	0	0	0	0	501	
1	0	0	0	0	501	
2	0	0	0	0	497	
3	0	0	0	0	496	
4	0	0	0	0	522	
5	0	0	0	0	488	
6	0	0	0	0	515	
7	0	0	0	0	515	
8	0	0	0	0	503	
9	0	0	0	0	519	
10	0	0	0	0	512	
11	0	0	0	0	519	
12	0	0	0	0	522	
13	0	0	0	0	504	
14	0	0	0	0	506	
15	0	0	0	0	500	
0	0	0	0	0	519	
1	0	0	0	0	519	
2	0	0	0	0	513	
3	0	0	0	0	512	
4	0	0	0	0	505	
5	0	0	0	0	516	
6	0	0	0	0	506	
7	0	0	0	0	497	
8	0	0	0	0	527	
9	0	0	0	0	509	
10	0	0	0	0	505	
11	0	0	0	0	494	
12	0	0	0	0	534	
13	0	0	0	0	519	
14	0	0	0	0	503	
15	0	0	0	0	522	
0	0	0	0	0	513	
1	0	0	0	0	497	
2	0	0	0	0	511	
3	0	0	0	0	499	
4	0	0	0	0	498	
5	0	0	0	0	502	
6	0	0	0	0	503	
7	0	0	0	0	479	
8	0	0	0	0	530	
9	0	0	0	0	615	
10	0	0	0	0	544	
11	0	0	0	0	480	
12	0	0	0	0	489	
13	0	0	0	0	519	
14	0	0	0	0	506	
15	0	0	0	0	502	
0	0	0	0	0	489	
1	0	0	0	0	500	
2	0	0	0	0	494	
3	0	0	0	0	518	
4	0	0	0	0	528	
5	0	0	0	0	502	
6	0	0	0	0	503	
7	0	0	0	0	537	
8	0	0	0	0	532	
9	0	0	0	0	513	
10	0	0	0	0	532	
11	0	0	0	0	527	
12	0	0	0	0	532	
13	0	0	0	0	537	
14	0	0	0	0	545	
15	0	0	0	0	560	
0	0	0	0	0	563	
1	0	0	0	0	550	
2	0	0	0	0	562	
3	0	0	0	0	533	
4	0	0	0	0	527	
5	0	0	0	0	502	
6	0	0	0	0	478	
7	0	0	0	0	461	
8	0	0	0	0	455	
9	0	0	0	0	455	
10	0	0	0	0	461	
11	0	0	0	0	455	
12	0	0	0	0	470	
13	0	0	0	0	473	
14	0	0	0	0	486	
15	0	0	0	0	478	
0	0	0	0	0	485	
1	0	0	0	0	494	
2	0	0	0	0	498	
3	0	0	0	0	489	
4	0	0	0	0	485	
5	0	0	0	0	506	
6	0	0	0	0	499	
7	0	0	0	0	500	
8	0	0	0	0	494	
9	0	0	0	0	518	
10	0	0	0	0	504	
11	0	0	0	0	508	
12	0	0	0	0	498	
13	0	0	0	0	504	
14	0	0	0	0	538	
15	0	0	0	0	473	
0	0	0	0	0	491	
1	0	0	0	0	499	
2	0	0	0	0	511	
3	0	0	0	0	504	
4	0	0	0	0	504	
5	0	0	0	0	513	
6	0	0	0	0	511	
7	0	0	0	0	503	
8	0	0	0	0	515	
9	0	0	0	0	508	
10	0	0	0	0	525	
11	0	0	0	0	510	
12	0	0	0	0	505	
13	0	0	0	0	517	
14	0	0	0	0	515	
15	0	0	0	0	516	
0	0	0	0	0	513	
1	0	0	0	0	503	
2	0	0	0	0	513	
3	0	0	0	0	515	
4	0	0	0	0	515	
5	0	0	0	0	511	
6	0	0	0	0	514	
7	0	0	0	0	543	
8	0	0	0	0	502	
9	0	0	0	0	499	
10	0	0	0	0	496	
11	0	0	0	0	511	
12	0	0	0	0	499	
13	0	0	0	0	502	
14	0	0	0	0	524	
15	0	0	0	0	498	
0	0	0	0	0	487	
1	0	0	0	0	608	
2	0	0	0	0	568	
3	0	0	0	0	475	
4	0	0	0	0	495	
5	0	0	0	0	506	
6	0	0	0	0	504	
7	0	0	0	0	516	
8	0	0	0	0	494	
9	0	0	0	0	490	
10	0	0	0	0	502	
11	0	0	0	0	508	
12	0	0	0	0	508	
13	0	0	0	0	518	
14	0	0	0	0	531	
15	0	0	0	0	536	
0	0	0	0	0	511	
1	0	0	0	0	511	
2	0	0	0	0	531	
3	0	0	0	0	512	
4	0	0	0	0	531	
5	0	0	0	0	549	
6	0	0	0	0	562	
7	0	0	0	0	551	
8	0	0	0	0	555	
9	0	0	0	0	558	
10	0	0	0	0	549	
11	0	0	0	0	556	
12	0	0	0	0	525	
13	0	0	0	0	503	
14	0	0	0	0	488	
15	0	0	0	0	458	
0	0	0	0	0	435	
1	0	0	0	0	441	
2	0	0	0	0	449	
3	0	0	0	0	463	
4	0	0	0	0	445	
5	0	0	0	0	479	
6	0	0	0	0	465	
7	0	0	0	0	488	
8	0	0	0	0	495	
9	0	0	0	0	502	
10	0	0	0	0	473	
11	0	0	0	0	480	
12	0	0	0	0	521	
13	0	0	0	0	489	
14	0	0	0	0	511	
15	0	0	0	0	505	
0	0	0	0	0	510	
1	0	0	0	0	497	
2	0	0	0	0	494	
3	0	0	0	0	504	
4	0	0	0	0	539	
5	0	0	0	0	523	
6	0	0	0	0	538	
7	0	0	0	0	519	
8	0	0	0	0	523	
9	0	0	0	0	535	
10	0	0	0	0	544	
11	0	0	0	0	522	
12	0	0	0	0	553	
13	0	0	0	0	514	
14	0	0	0	0	554	
15	0	0	0	0	529	
0	0	0	0	0	561	
1	0	0	0	0	511	
2	0	0	0	0	524	
3	0	0	0	0	523	
4	0	0	0	0	510	
5	0	0	0	0	534	
6	0	0	0	0	537	
7	0	0	0	0	488	
8	0	0	0	0	525	
9	0	0	0	0	512	
10	0	0	0	0	533	
11	0	0	0	0	503	
12	0	0	0	0	504	
13	0	0	0	0	512	
14	0	0	0	0	508	
15	0	0	0	0	477	
0	0	0	0	0	492	
1	0	0	0	0	516	
2	0	0	0	0	494	
3	0	0	0	0	486	
4	0	0	0	0	499	
5	0	0	0	0	509	
6	0	0	0	0	600	
7	0	0	0	0	537	
8	0	0	0	0	475	
9	0	0	0	0	481	
10	0	0	0	0	473	
11	0	0	0	0	521	
12	0	0	0	0	464	
13	0	0	0	0	489	
14	0	0	0	0	508	
15	0	0	0	0	504	
0	0	0	0	0	496	
1	0	0	0	0	508	
2	0	0	0	0	505	
3	0	0	0	0	524	
4	0	0	0	0	522	
5	0	0	0	0	521	
6	0	0	0	0	506	
7	0	0	0	0	542	
8	0	0	0	0	515	
9	0	0	0	0	529	
10	0	0	0	0	528	
11	0	0	0	0	521	
12	0	0	0	0	551	
13	0	0	0	0	578	
14	0	0	0	0	553	
15	0	0	0	0	545	
0	0	0	0	0	551	
1	0	0	0	0	514	
2	0	0	0	0	492	
3	0	0	0	0	460	
4	0	0	0	0	439	
5	0	0	0	0	442	
6	0	0	0	0	456	
7	0	0	0	0	469	
8	0	0	0	0	482	
9	0	0	0	0	467	
10	0	0	0	0	491	
11	0	0	0	0	447	
12	0	0	0	0	480	
13	0	0	0	0	483	
14	0	0	0	0	481	
15	0	0	0	0	494	
0	0	0	0	0	483	
1	0	0	0	0	480	
2	0	0	0	0	502	
3	0	0	0	0	455	
4	0	0	0	0	496	
5	0	0	0	0	482	
6	0	0	0	0	502	
7	0	0	0	0	490	
8	0	0	0	0	526	
9	0	0	0	0	485	
10	0	0	0	0	481	
11	0	0	0	0	479	
12	0	0	0	0	485	
13	0	0	0	0	510	
14	0	0	0	0	487	
15	0	0	0	0	507	
0	0	0	0	0	464	
1	0	0	0	0	503	
2	0	0	0	0	448	
3	0	0	0	0	485	
4	0	0	0	0	477	
5	0	0	0	0	511	
6	0	0	0	0	483	
7	0	0	0	0	514	
8	0	0	0	0	464	
9	0	0	0	0	464	
10	0	0	0	0	503	
11	0	0	0	0	501	
12	0	0	0	0	487	
13	0	0	0	0	487	
14	0	0	0	0	496	
15	0	0	0	0	479	
0	0	0	0	0	505	
1	0	0	0	0	509	
2	0	0	0	0	496	
3	0	0	0	0	463	
4	0	0	0	0	571	
5	0	0	0	0	657	
6	0	0	0	0	533	
7	0	0	0	0	465	
8	0	0	0	0	515	
9	0	0	0	0	521	
10	0	0	0	0	505	
11	0	0	0	0	518	
12	0	0	0	0	531	
13	0	0	0	0	525	
14	0	0	0	0	503	
15	0	0	0	0	535	
0	0	0	0	0	524	
1	0	0	0	0	471	
2	0	0	0	0	501	
3	0	0	0	0	519	
4	0	0	0	0	498	
5	0	0	0	0	520	
6	0	0	0	0	520	
7	0	0	0	0	494	
8	0	0	0	0	519	
9	0	0	0	0	498	
10	0	0	0	0	522	
11	0	0	0	0	549	
12	0	0	0	0	548	
13	0	0	0	0	524	
14	0	0	0	0	594	
15	0	0	0	0	547	
0	0	0	0	0	477	
1	0	0	0	0	513	
2	0	0	0	0	467	
3	0	0	0	0	472	
4	0	0	0	0	470	
5	0	0	0	0	459	
6	0	0	0	0	477	
7	0	0	0	0	497	
8	0	0	0	0	476	
9	0	0	0	0	487	
10	0	0	0	0	487	
11	0	0	0	0	503	
12	0	0	0	0	457	
13	0	0	0	0	517	
14	0	0	0	0	476	
15	0	0	0	0	483	
0	0	0	0	0	484	
1	0	0	0	0	455	
2	0	0	0	0	486	
3	0	0	0	0	484	
4	0	0	0	0	496	
5	0	0	0	0	470	
6	0	0	0	0	470	
7	0	0	0	0	473	
8	0	0	0	0	521	
9	0	0	0	0	463	
10	0	0	0	0	465	
11	0	0	0	0	482	
12	0	0	0	0	488	
13	0	0	0	0	477	
14	0	0	0	0	476	
15	0	0	0	0	485	
0	0	0	0	0	481	
1	0	0	0	0	510	
2	0	0	0	0	475	
3	0	0	0	0	478	
4	0	0	0	0	522	
5	0	0	0	0	485	
6	0	0	0	0	507	
7	0	0	0	0	504	
8	0	0	0	0	527	
9	0	0	0	0	526	
10	0	0	0	0	508	
11	0	0	0	0	529	
12	0	0	0	0	529	
13	0	0	0	0	527	
14	0	0	0	0	532	
15	0	0	0	0	509	
0	0	0	0	0	535	
1	0	0	0	0	484	
2	0	0	0	0	515	
3	0	0	0	0	567	
4	0	0	0	0	652	
5	0	0	0	0	551	
6	0	0	0	0	483	
7	0	0	0	0	531	
8	0	0	0	0	519	
9	0	0	0	0	520	
10	0	0	0	0	484	
11	0	0	0	0	534	
12	0	0	0	0	501	
13	0	0	0	0	518	
14	0	0	0	0	497	
15	0	0	0	0	499	
0	0	0	0	0	514	
1	0	0	0	0	496	
2	0	0	0	0	490	
3	0	0	0	0	546	
4	0	0	0	0	496	
5	0	0	0	0	494	
6	0	0	0	0	497	
7	0	0	0	0	518	
8	0	0	0	0	524	
9	0	0	0	0	521	
10	0	0	0	0	547	
11	0	0	0	0	570	
12	0	0	0	0	527	
13	0	0	0	0	534	
14	0	0	0	0	546	
15	0	0	0	0	470	
0	0	0	0	0	474	
1	0	0	0	0	460	
2	0	0	0	0	461	
3	0	0	0	0	440	
4	0	0	0	0	436	
5	0	0	0	0	470	
6	0	0	0	0	460	
7	0	0	0	0	464	
8	0	0	0	0	464	
9	0	0	0	0	498	
10	0	0	0	0	465	
11	0	0	0	0	491	
12	0	0	0	0	515	
13	0	0	0	0	518	
14	0	0	0	0	508	
15	0	0	0	0	551	
0	0	0	0	0	514	
1	0	0	0	0	547	
2	0	0	0	0	532	
3	0	0	0	0	512	
4	0	0	0	0	534	
5	0	0	0	0	550	
6	0	0	0	0	521	
7	0	0	0	0	541	
8	0	0	0	0	532	
9	0	0	0	0	512	
10	0	0	0	0	532	
11	0	0	0	0	540	
12	0	0	0	0	504	
13	0	0	0	0	525	
14	0	0	0	0	519	
15	0	0	0	0	527	
0	0	0	0	0	503	
1	0	0	0	0	520	
2	0	0	0	0	528	
3	0	0	0	0	511	
4	0	0	0	0	500	
5	0	0	0	0	544	
6	0	0	0	0	510	
7	0	0	0	0	552	
8	0	0	0	0	499	
9	0	0	0	0	536	
10	0	0	0	0	498	
11	0	0	0	0	531	
12	0	0	0	0	523	
13	0	0	0	0	529	
14	0	0	0	0	533	
15	0	0	0	0	542	
0	0	0	0	0	515	
1	0	0	0	0	518	
2	0	0	0	0	514	
3	0	0	0	0	516	
4	0	0	0	0	521	
5	0	0	0	0	527	
6	0	0	0	0	528	
7	0	0	0	0	498	
8	0	0	0	0	526	
9	0	0	0	0	514	
10	0	0	0	0	464	
11	0	0	0	0	527	
12	0	0	0	0	537	
13	0	0	0	0	631	
14	0	0	0	0	504	
15	0	0	0	0	482	
0	0	0	0	0	499	
1	0	0	0	0	521	
2	0	0	0	0	478	
3	0	0	0	0	528	
4	0	0	0	0	522	
5	0	0	0	0	508	
6	0	0	0	0	524	
7	0	0	0	0	511	
8	0	0	0	0	552	
9	0	0	0	0	507	
10	0	0	0	0	525	
11	0	0	0	0	537	
12	0	0	0	0	508	
13	0	0	0	0	536	
14	0	0	0	0	542	
15	0	0	0	0	529	
0	0	0	0	0	525	
1	0	0	0	0	543	
2	0	0	0	0	551	
3	0	0	0	0	567	
4	0	0	0	0	569	
5	0	0	0	0	559	
6	0	0	0	0	528	
7	0	0	0	0	543	
8	0	0	0	0	467	
9	0	0	0	0	502	
10	0	0	0	0	452	
11	0	0	0	0	463	
12	0	0	0	0	441	
13	0	0	0	0	451	
14	0	0	0	0	432	
15	0	0	0	0	459	
0	0	0	0	0	440	
1	0	0	0	0	476	
2	0	0	0	0	454	
3	0	0	0	0	492	
4	0	0	0	0	494	
5	0	0	0	0	484	
6	0	0	0	0	478	
7	0	0	0	0	469	
8	0	0	0	0	490	
9	0	0	0	0	513	
10	0	0	0	0	511	
11	0	0	0	0	496	
12	0	0	0	0	508	
13	0	0	0	0	506	
14	0	0	0	0	506	
15	0	0	0	0	537	
0	0	0	0	0	489	
1	0	0	0	0	518	
2	0	0	0	0	518	
3	0	0	0	0	534	
4	0	0	0	0	517	
5	0	0	0	0	533	
6	0	0	0	0	514	
7	0	0	0	0	544	
8	0	0	0	0	526	
9	0	0	0	0	528	
10	0	0	0	0	528	
11	0	0	0	0	516	
12	0	0	0	0	506	
13	0	0	0	0	529	
14	0	0	0	0	466	
15	0	0	0	0	544	
0	0	0	0	0	491	
1	0	0	0	0	515	
2	0	0	0	0	483	
3	0	0	0	0	505	
4	0	0	0	0	512	
5	0	0	0	0	521	
6	0	0	0	0	509	
7	0	0	0	0	521	
8	0	0	0	0	527	
9	0	0	0	0	523	
10	0	0	0	0	487	
11	0	0	0	0	521	
12	0	0	0	0	495	
13	0	0	0	0	516	
14	0	0	0	0	493	
15	0	0	0	0	495	
0	0	0	0	0	512	
1	0	0	0	0	517	
2	0	0	0	0	507	
3	0	0	0	0	501	
4	0	0	0	0	497	
5	0	0	0	0	500	
6	0	0	0	0	473	
7	0	0	0	0	603	
8	0	0	0	0	585	
9	0	0	0	0	518	
10	0	0	0	0	455	
11	0	0	0	0	498	
12	0	0	0	0	489	
13	0	0	0	0	517	
14	0	0	0	0	499	
15	0	0	0	0	503	
0	0	0	0	0	465	
1	0	0	0	0	575	
2	0	0	0	0	476	
3	0	0	0	0	515	
4	0	0	0	0	521	
5	0	0	0	0	519	
6	0	0	0	0	509	
7	0	0	0	0	515	
8	0	0	0	0	559	
9	0	0	0	0	503	
10	0	0	0	0	550	
11	0	0	0	0	525	
12	0	0	0	0	550	
13	0	0	0	0	568	
14	0	0	0	0	561	
15	0	0	0	0	568	
0	0	0	0	0	571	
1	0	0	0	0	557	
2	0	0	0	0	533	
3	0	0	0	0	525	
4	0	0	0	0	473	
5	0	0	0	0	478	
6	0	0	0	0	448	
7	0	0	0	0	472	
8	0	0	0	0	465	
9	0	0	0	0	487	
10	0	0	0	0	437	
11	0	0	0	0	460	
12	0	0	0	0	493	
13	0	0	0	0	481	
14	0	0	0	0	500	
15	0	0	0	0	496	
0	0	0	0	0	507	
1	0	0	0	0	481	
2	0	0	0	0	488	
3	0	0	0	0	514	
4	0	0	0	0	481	
5	0	0	0	0	493	
6	0	0	0	0	503	
7	0	0	0	0	487	
8	0	0	0	0	496	
9	0	0	0	0	509	
10	0	0	0	0	504	
11	0	0	0	0	515	
12	0	0	0	0	507	
13	0	0	0	0	523	
14	0	0	0	0	509	
15	0	0	0	0	518	
0	0	0	0	0	505	
1	0	0	0	0	551	
2	0	0	0	0	505	
3	0	0	0	0	550	
4	0	0	0	0	508	
5	0	0	0	0	515	
6	0	0	0	0	511	
7	0	0	0	0	552	
8	0	0	0	0	523	
9	0	0	0	0	513	
10	0	0	0	0	513	
11	0	0	0	0	530	
12	0	0	0	0	517	
13	0	0	0	0	540	
14	0	0	0	0	497	
15	0	0	0	0	541	
0	0	0	0	0	522	
1	0	0	0	0	509	
2	0	0	0	0	505	
3	0	0	0	0	566	
4	0	0	0	0	499	
5	0	0	0	0	536	
6	0	0	0	0	495	
7	0	0	0	0	518	
8	0	0	0	0	501	
9	0	0	0	0	496	
10	0	0	0	0	493	
11	0	0	0	0	494	
12	0	0	0	0	501	
13	0	0	0	0	514	
14	0	0	0	0	451	
15	0	0	0	0	551	
0	0	0	0	0	629	
1	0	0	0	0	537	
2	0	0	0	0	458	
3	0	0	0	0	500	
4	0	0	0	0	471	
5	0	0	0	0	535	
6	0	0	0	0	487	
7	0	0	0	0	529	
8	0	0	0	0	507	
9	0	0	0	0	506	
10	0	0	0	0	479	
11	0	0	0	0	507	
12	0	0	0	0	512	
13	0	0	0	0	535	
14	0	0	0	0	533	
15	0	0	0	0	499	
0	0	0	0	0	521	
1	0	0	0	0	532	
2	0	0	0	0	523	
3	0	0	0	0	547	
4	0	0	0	0	521	
5	0	0	0	0	559	
6	0	0	0	0	549	
7	0	0	0	0	567	
8	0	0	0	0	547	
9	0	0	0	0	561	
10	0	0	0	0	532	
11	0	0	0	0	506	
12	0	0	0	0	492	
13	0	0	0	0	481	
14	0	0	0	0	463	
15	0	0	0	0	441	
0	0	0	0	0	450	
1	0	0	0	0	470	
2	0	0	0	0	456	
3	0	0	0	0	470	
4	0	0	0	0	476	
5	0	0	0	0	500	
6	0	0	0	0	480	
7	0	0	0	0	513	
8	0	0	0	0	484	
9	0	0	0	0	529	
10	0	0	0	0	489	
11	0	0	0	0	501	
12	0	0	0	0	515	
13	0	0	0	0	548	
14	0	0	0	0	478	
15	0	0	0	0	487	
0	0	0	0	0	529	
1	0	0	0	0	516	
2	0	0	0	0	446	
3	0	0	0	0	526	
4	0	0	0	0	503	
5	0	0	0	0	502	
6	0	0	0	0	515	
7	0	0	0	0	518	
8	0	0	0	0	523	
9	0	0	0	0	562	
10	0	0	0	0	508	
11	0	0	0	0	549	
12	0	0	0	0	508	
13	0	0	0	0	513	
14	0	0	0	0	528	
15	0	0	0	0	530	
0	0	0	0	0	503	
1	0	0	0	0	544	
2	0	0	0	0	527	
3	0	0	0	0	528	
4	0	0	0	0	489	
5	0	0	0	0	528	
6	0	0	0	0	515	
7	0	0	0	0	531	
8	0	0	0	0	539	
9	0	0	0	0	547	
10	0	0	0	0	524	
11	0	0	0	0	511	
12	0	0	0	0	512	
13	0	0	0	0	542	
14	0	0	0	0	539	
15	0	0	0	0	516	
0	0	0	0	0	543	
