intervalos,canal1,canal2,canal3,canal4,canal5
0,0,0,0,0,541
1,0,0,0,0,443
2,0,0,0,0,536
3,0,0,0,0,473
4,0,0,0,0,491
5,0,0,0,0,497
6,0,0,0,0,513
7,0,0,0,0,487
8,0,0,0,0,523
9,0,0,0,0,477
10,0,0,0,0,520
11,0,0,0,0,499
12,0,0,0,0,526
13,0,0,0,0,442
14,0,0,0,0,537
15,0,0,0,0,493
0,0,0,0,0,496
1,0,0,0,0,480
2,0,0,0,0,511
3,0,0,0,0,461
4,0,0,0,0,540
5,0,0,0,0,444
6,0,0,0,0,517
7,0,0,0,0,483
8,0,0,0,0,516
9,0,0,0,0,453
10,0,0,0,0,518
11,0,0,0,0,490
12,0,0,0,0,507
13,0,0,0,0,467
14,0,0,0,0,524
15,0,0,0,0,462
0,0,0,0,0,519
1,0,0,0,0,471
2,0,0,0,0,516
3,0,0,0,0,465
4,0,0,0,0,553
5,0,0,0,0,442
6,0,0,0,0,497
7,0,0,0,0,497
8,0,0,0,0,500
9,0,0,0,0,480
10,0,0,0,0,500
11,0,0,0,0,472
12,0,0,0,0,518
13,0,0,0,0,472
14,0,0,0,0,527
15,0,0,0,0,521
0,0,0,0,0,512
1,0,0,0,0,472
2,0,0,0,0,518
3,0,0,0,0,474
4,0,0,0,0,520
5,0,0,0,0,478
6,0,0,0,0,518
7,0,0,0,0,439
8,0,0,0,0,523
9,0,0,0,0,487
10,0,0,0,0,539
11,0,0,0,0,467
12,0,0,0,0,504
13,0,0,0,0,475
14,0,0,0,0,509
15,0,0,0,0,480
0,0,0,0,0,488
1,0,0,0,0,491
2,0,0,0,0,457
3,0,0,0,0,515
4,0,0,0,0,476
5,0,0,0,0,487
6,0,0,0,0,521
7,0,0,0,0,489
8,0,0,0,0,506
9,0,0,0,0,486
10,0,0,0,0,505
11,0,0,0,0,491
12,0,0,0,0,503
13,0,0,0,0,480
14,0,0,0,0,466
15,0,0,0,0,498
0,0,0,0,0,490
1,0,0,0,0,484
2,0,0,0,0,519
3,0,0,0,0,476
4,0,0,0,0,518
5,0,0,0,0,468
6,0,0,0,0,524
7,0,0,0,0,472
8,0,0,0,0,516
9,0,0,0,0,447
10,0,0,0,0,519
11,0,0,0,0,478
12,0,0,0,0,525
13,0,0,0,0,470
14,0,0,0,0,513
15,0,0,0,0,485
0,0,0,0,0,510
1,0,0,0,0,455
2,0,0,0,0,550
3,0,0,0,0,469
4,0,0,0,0,471
5,0,0,0,0,486
6,0,0,0,0,513
7,0,0,0,0,453
8,0,0,0,0,512
9,0,0,0,0,467
10,0,0,0,0,514
11,0,0,0,0,495
12,0,0,0,0,512
13,0,0,0,0,464
14,0,0,0,0,534
15,0,0,0,0,451
0,0,0,0,0,503
1,0,0,0,0,470
2,0,0,0,0,489
3,0,0,0,0,504
4,0,0,0,0,506
5,0,0,0,0,477
6,0,0,0,0,540
7,0,0,0,0,477
8,0,0,0,0,492
9,0,0,0,0,480
10,0,0,0,0,479
11,0,0,0,0,474
12,0,0,0,0,473
13,0,0,0,0,480
14,0,0,0,0,502
15,0,0,0,0,487
0,0,0,0,0,513
1,0,0,0,0,460
2,0,0,0,0,518
3,0,0,0,0,483
4,0,0,0,0,515
5,0,0,0,0,475
6,0,0,0,0,486
7,0,0,0,0,488
8,0,0,0,0,501
9,0,0,0,0,474
10,0,0,0,0,527
11,0,0,0,0,465
12,0,0,0,0,515
13,0,0,0,0,498
14,0,0,0,0,504
15,0,0,0,0,499
0,0,0,0,0,507
1,0,0,0,0,470
2,0,0,0,0,513
3,0,0,0,0,476
4,0,0,0,0,513
5,0,0,0,0,438
6,0,0,0,0,551
7,0,0,0,0,444
8,0,0,0,0,514
9,0,0,0,0,467
10,0,0,0,0,505
11,0,0,0,0,465
12,0,0,0,0,493
13,0,0,0,0,531
14,0,0,0,0,495
15,0,0,0,0,470
0,0,0,0,0,512
1,0,0,0,0,502
2,0,0,0,0,450
3,0,0,0,0,491
4,0,0,0,0,464
5,0,0,0,0,498
6,0,0,0,0,488
7,0,0,0,0,481
8,0,0,0,0,508
9,0,0,0,0,476
10,0,0,0,0,537
11,0,0,0,0,465
12,0,0,0,0,525
13,0,0,0,0,468
14,0,0,0,0,450
15,0,0,0,0,473
0,0,0,0,0,504
1,0,0,0,0,468
2,0,0,0,0,502
3,0,0,0,0,475
4,0,0,0,0,500
5,0,0,0,0,492
6,0,0,0,0,528
7,0,0,0,0,461
8,0,0,0,0,503
9,0,0,0,0,475
10,0,0,0,0,479
11,0,0,0,0,503
12,0,0,0,0,507
13,0,0,0,0,442
14,0,0,0,0,519
15,0,0,0,0,509
0,0,0,0,0,494
1,0,0,0,0,444
2,0,0,0,0,577
3,0,0,0,0,478
4,0,0,0,0,484
5,0,0,0,0,533
6,0,0,0,0,453
7,0,0,0,0,501
8,0,0,0,0,469
9,0,0,0,0,493
10,0,0,0,0,483
11,0,0,0,0,457
12,0,0,0,0,518
13,0,0,0,0,435
14,0,0,0,0,561
15,0,0,0,0,457
0,0,0,0,0,466
1,0,0,0,0,478
2,0,0,0,0,531
3,0,0,0,0,510
4,0,0,0,0,547
5,0,0,0,0,405
6,0,0,0,0,609
7,0,0,0,0,401
8,0,0,0,0,472
9,0,0,0,0,503
10,0,0,0,0,479
11,0,0,0,0,498
12,0,0,0,0,595
13,0,0,0,0,378
14,0,0,0,0,529
15,0,0,0,0,480
0,0,0,0,0,419
1,0,0,0,0,495
2,0,0,0,0,501
3,0,0,0,0,550
4,0,0,0,0,562
5,0,0,0,0,446
6,0,0,0,0,554
7,0,0,0,0,319
8,0,0,0,0,724
9,0,0,0,0,339
10,0,0,0,0,574
11,0,0,0,0,445
12,0,0,0,0,565
13,0,0,0,0,431
14,0,0,0,0,564
15,0,0,0,0,495
0,0,0,0,0,477
1,0,0,0,0,540
2,0,0,0,0,428
3,0,0,0,0,452
4,0,0,0,0,583
5,0,0,0,0,379
6,0,0,0,0,487
7,0,0,0,0,337
8,0,0,0,0,691
9,0,0,0,0,397
10,0,0,0,0,652
11,0,0,0,0,423
12,0,0,0,0,540
13,0,0,0,0,519
14,0,0,0,0,512
15,0,0,0,0,488
0,0,0,0,0,551
1,0,0,0,0,556
2,0,0,0,0,448
3,0,0,0,0,403
4,0,0,0,0,481
5,0,0,0,0,371
6,0,0,0,0,616
7,0,0,0,0,432
8,0,0,0,0,594
9,0,0,0,0,476
10,0,0,0,0,504
11,0,0,0,0,377
12,0,0,0,0,449
13,0,0,0,0,332
14,0,0,0,0,605
15,0,0,0,0,486
0,0,0,0,0,524
1,0,0,0,0,497
2,0,0,0,0,630
3,0,0,0,0,566
4,0,0,0,0,553
5,0,0,0,0,498
6,0,0,0,0,559
7,0,0,0,0,505
8,0,0,0,0,523
9,0,0,0,0,440
10,0,0,0,0,525
11,0,0,0,0,460
12,0,0,0,0,563
13,0,0,0,0,457
14,0,0,0,0,548
15,0,0,0,0,542
0,0,0,0,0,540
1,0,0,0,0,460
2,0,0,0,0,579
3,0,0,0,0,419
4,0,0,0,0,502
5,0,0,0,0,471
6,0,0,0,0,483
7,0,0,0,0,486
8,0,0,0,0,654
9,0,0,0,0,444
10,0,0,0,0,518
11,0,0,0,0,497
12,0,0,0,0,532
13,0,0,0,0,430
14,0,0,0,0,582
15,0,0,0,0,444
0,0,0,0,0,537
1,0,0,0,0,475
2,0,0,0,0,516
3,0,0,0,0,480
4,0,0,0,0,551
5,0,0,0,0,438
6,0,0,0,0,513
7,0,0,0,0,498
8,0,0,0,0,542
9,0,0,0,0,491
10,0,0,0,0,529
11,0,0,0,0,464
12,0,0,0,0,521
13,0,0,0,0,485
14,0,0,0,0,540
15,0,0,0,0,513
0,0,0,0,0,536
1,0,0,0,0,477
2,0,0,0,0,480
3,0,0,0,0,482
4,0,0,0,0,550
5,0,0,0,0,480
6,0,0,0,0,538
7,0,0,0,0,483
8,0,0,0,0,510
9,0,0,0,0,458
10,0,0,0,0,537
11,0,0,0,0,425
12,0,0,0,0,534
13,0,0,0,0,473
14,0,0,0,0,520
15,0,0,0,0,465
0,0,0,0,0,540
1,0,0,0,0,451
2,0,0,0,0,547
3,0,0,0,0,487
4,0,0,0,0,558
5,0,0,0,0,458
6,0,0,0,0,536
7,0,0,0,0,461
8,0,0,0,0,549
9,0,0,0,0,454
10,0,0,0,0,538
11,0,0,0,0,456
12,0,0,0,0,525
13,0,0,0,0,448
14,0,0,0,0,523
15,0,0,0,0,439
0,0,0,0,0,558
1,0,0,0,0,461
2,0,0,0,0,543
3,0,0,0,0,445
4,0,0,0,0,549
5,0,0,0,0,470
6,0,0,0,0,545
7,0,0,0,0,456
8,0,0,0,0,527
9,0,0,0,0,455
10,0,0,0,0,529
11,0,0,0,0,466
12,0,0,0,0,543
13,0,0,0,0,451
14,0,0,0,0,543
15,0,0,0,0,435
0,0,0,0,0,533
1,0,0,0,0,418
2,0,0,0,0,554
3,0,0,0,0,469
4,0,0,0,0,557
5,0,0,0,0,431
6,0,0,0,0,575
7,0,0,0,0,439
8,0,0,0,0,569
9,0,0,0,0,420
10,0,0,0,0,598
11,0,0,0,0,437
12,0,0,0,0,547
13,0,0,0,0,415
14,0,0,0,0,565
15,0,0,0,0,451
0,0,0,0,0,541
1,0,0,0,0,453
2,0,0,0,0,543
3,0,0,0,0,446
4,0,0,0,0,563
5,0,0,0,0,457
6,0,0,0,0,537
7,0,0,0,0,498
8,0,0,0,0,505
9,0,0,0,0,475
10,0,0,0,0,523
11,0,0,0,0,459
12,0,0,0,0,541
13,0,0,0,0,476
14,0,0,0,0,518
15,0,0,0,0,474
0,0,0,0,0,516
1,0,0,0,0,466
2,0,0,0,0,511
3,0,0,0,0,440
4,0,0,0,0,531
5,0,0,0,0,443
6,0,0,0,0,544
7,0,0,0,0,460
8,0,0,0,0,523
9,0,0,0,0,473
10,0,0,0,0,520
11,0,0,0,0,449
12,0,0,0,0,521
13,0,0,0,0,465
14,0,0,0,0,518
15,0,0,0,0,441
0,0,0,0,0,566
1,0,0,0,0,476
2,0,0,0,0,521
3,0,0,0,0,451
4,0,0,0,0,536
5,0,0,0,0,469
6,0,0,0,0,519
7,0,0,0,0,476
8,0,0,0,0,495
9,0,0,0,0,464
10,0,0,0,0,508
11,0,0,0,0,459
12,0,0,0,0,544
13,0,0,0,0,451
14,0,0,0,0,495
15,0,0,0,0,480
0,0,0,0,0,554
1,0,0,0,0,444
2,0,0,0,0,542
3,0,0,0,0,462
4,0,0,0,0,528
5,0,0,0,0,440
6,0,0,0,0,518
7,0,0,0,0,462
8,0,0,0,0,481
9,0,0,0,0,423
10,0,0,0,0,518
11,0,0,0,0,487
12,0,0,0,0,512
13,0,0,0,0,456
14,0,0,0,0,520
15,0,0,0,0,461
0,0,0,0,0,559
1,0,0,0,0,408
2,0,0,0,0,539
3,0,0,0,0,463
4,0,0,0,0,545
5,0,0,0,0,441
6,0,0,0,0,559
7,0,0,0,0,441
8,0,0,0,0,543
9,0,0,0,0,498
10,0,0,0,0,520
11,0,0,0,0,473
12,0,0,0,0,548
13,0,0,0,0,474
14,0,0,0,0,562
15,0,0,0,0,440
0,0,0,0,0,532
1,0,0,0,0,473
2,0,0,0,0,510
3,0,0,0,0,476
4,0,0,0,0,519
5,0,0,0,0,463
6,0,0,0,0,539
7,0,0,0,0,467
8,0,0,0,0,541
9,0,0,0,0,460
10,0,0,0,0,498
11,0,0,0,0,451
12,0,0,0,0,535
13,0,0,0,0,443
14,0,0,0,0,553
15,0,0,0,0,487
0,0,0,0,0,528
1,0,0,0,0,468
2,0,0,0,0,522
3,0,0,0,0,474
4,0,0,0,0,540
5,0,0,0,0,464
6,0,0,0,0,534
7,0,0,0,0,480
8,0,0,0,0,552
9,0,0,0,0,449
10,0,0,0,0,526
11,0,0,0,0,451
12,0,0,0,0,543
13,0,0,0,0,467
14,0,0,0,0,527
15,0,0,0,0,480
0,0,0,0,0,539
1,0,0,0,0,444
2,0,0,0,0,539
3,0,0,0,0,481
4,0,0,0,0,547
5,0,0,0,0,481
6,0,0,0,0,521
7,0,0,0,0,463
8,0,0,0,0,550
9,0,0,0,0,481
10,0,0,0,0,510
11,0,0,0,0,507
12,0,0,0,0,511
13,0,0,0,0,468
14,0,0,0,0,519
15,0,0,0,0,495
0,0,0,0,0,534
1,0,0,0,0,458
2,0,0,0,0,550
3,0,0,0,0,470
4,0,0,0,0,527
5,0,0,0,0,477
6,0,0,0,0,537
7,0,0,0,0,469
8,0,0,0,0,484
9,0,0,0,0,518
10,0,0,0,0,512
11,0,0,0,0,464
12,0,0,0,0,510
13,0,0,0,0,493
14,0,0,0,0,524
15,0,0,0,0,490
0,0,0,0,0,526
1,0,0,0,0,475
2,0,0,0,0,539
3,0,0,0,0,491
4,0,0,0,0,521
5,0,0,0,0,472
6,0,0,0,0,541
7,0,0,0,0,469
8,0,0,0,0,544
9,0,0,0,0,469
10,0,0,0,0,552
11,0,0,0,0,479
12,0,0,0,0,543
13,0,0,0,0,473
14,0,0,0,0,500
15,0,0,0,0,483
0,0,0,0,0,546
1,0,0,0,0,499
2,0,0,0,0,483
3,0,0,0,0,508
4,0,0,0,0,510
5,0,0,0,0,481
6,0,0,0,0,509
7,0,0,0,0,479
8,0,0,0,0,514
9,0,0,0,0,479
10,0,0,0,0,517
11,0,0,0,0,471
12,0,0,0,0,531
13,0,0,0,0,490
14,0,0,0,0,547
15,0,0,0,0,478
0,0,0,0,0,521
1,0,0,0,0,483
2,0,0,0,0,524
3,0,0,0,0,487
4,0,0,0,0,488
5,0,0,0,0,496
6,0,0,0,0,502
7,0,0,0,0,479
8,0,0,0,0,531
9,0,0,0,0,478
10,0,0,0,0,548
11,0,0,0,0,471
12,0,0,0,0,521
13,0,0,0,0,495
14,0,0,0,0,528
15,0,0,0,0,512
0,0,0,0,0,508
1,0,0,0,0,462
2,0,0,0,0,598
3,0,0,0,0,438
4,0,0,0,0,514
5,0,0,0,0,417
6,0,0,0,0,681
7,0,0,0,0,568
8,0,0,0,0,538
9,0,0,0,0,427
10,0,0,0,0,625
11,0,0,0,0,556
12,0,0,0,0,576
13,0,0,0,0,486
14,0,0,0,0,637
15,0,0,0,0,341
0,0,0,0,0,643
1,0,0,0,0,437
2,0,0,0,0,251
3,0,0,0,0,1020
4,0,0,0,0,321
5,0,0,0,0,581
6,0,0,0,0,542
7,0,0,0,0,278
8,0,0,0,0,839
9,0,0,0,0,1022
10,0,0,0,0,278
11,0,0,0,0,608
12,0,0,0,0,401
13,0,0,0,0,699
14,0,0,0,0,209
15,0,0,0,0,74
0,0,0,0,0,1022
1,0,0,0,0,0
2,0,0,0,0,685
3,0,0,0,0,895
4,0,0,0,0,688
5,0,0,0,0,216
6,0,0,0,0,1022
7,0,0,0,0,0
8,0,0,0,0,597
9,0,0,0,0,935
10,0,0,0,0,230
11,0,0,0,0,567
12,0,0,0,0,0
13,0,0,0,0,1022
14,0,0,0,0,245
15,0,0,0,0,380
0,0,0,0,0,439
1,0,0,0,0,768
2,0,0,0,0,371
3,0,0,0,0,222
4,0,0,0,0,904
5,0,0,0,0,882
6,0,0,0,0,0
7,0,0,0,0,839
8,0,0,0,0,254
9,0,0,0,0,376
10,0,0,0,0,510
11,0,0,0,0,546
12,0,0,0,0,617
13,0,0,0,0,367
14,0,0,0,0,325
15,0,0,0,0,1022
0,0,0,0,0,141
1,0,0,0,0,358
2,0,0,0,0,22
3,0,0,0,0,636
4,0,0,0,0,496
5,0,0,0,0,447
6,0,0,0,0,244
7,0,0,0,0,1022
8,0,0,0,0,1022
9,0,0,0,0,504
10,0,0,0,0,1022
11,0,0,0,0,271
12,0,0,0,0,449
13,0,0,0,0,702
14,0,0,0,0,803
15,0,0,0,0,421
0,0,0,0,0,310
1,0,0,0,0,1022
2,0,0,0,0,537
3,0,0,0,0,900
4,0,0,0,0,942
5,0,0,0,0,523
6,0,0,0,0,394
7,0,0,0,0,1022
8,0,0,0,0,509
9,0,0,0,0,731
10,0,0,0,0,459
11,0,0,0,0,944
12,0,0,0,0,412
13,0,0,0,0,369
14,0,0,0,0,615
15,0,0,0,0,1022
0,0,0,0,0,510
1,0,0,0,0,889
2,0,0,0,0,304
3,0,0,0,0,996
4,0,0,0,0,605
5,0,0,0,0,292
6,0,0,0,0,420
7,0,0,0,0,455
8,0,0,0,0,667
9,0,0,0,0,466
10,0,0,0,0,707
11,0,0,0,0,276
12,0,0,0,0,698
13,0,0,0,0,491
14,0,0,0,0,148
15,0,0,0,0,666
0,0,0,0,0,452
1,0,0,0,0,497
2,0,0,0,0,700
3,0,0,0,0,558
4,0,0,0,0,627
5,0,0,0,0,523
6,0,0,0,0,675
7,0,0,0,0,552
8,0,0,0,0,508
9,0,0,0,0,378
10,0,0,0,0,336
11,0,0,0,0,635
12,0,0,0,0,510
13,0,0,0,0,487
14,0,0,0,0,619
15,0,0,0,0,531
0,0,0,0,0,597
1,0,0,0,0,497
2,0,0,0,0,545
3,0,0,0,0,451
4,0,0,0,0,557
5,0,0,0,0,437
6,0,0,0,0,480
7,0,0,0,0,465
8,0,0,0,0,559
9,0,0,0,0,304
10,0,0,0,0,583
11,0,0,0,0,468
12,0,0,0,0,551
13,0,0,0,0,497
14,0,0,0,0,583
15,0,0,0,0,423
0,0,0,0,0,521
1,0,0,0,0,292
2,0,0,0,0,548
3,0,0,0,0,524
4,0,0,0,0,624
5,0,0,0,0,500
6,0,0,0,0,599
7,0,0,0,0,483
8,0,0,0,0,584
9,0,0,0,0,486
10,0,0,0,0,557
11,0,0,0,0,457
12,0,0,0,0,565
13,0,0,0,0,476
14,0,0,0,0,585
15,0,0,0,0,460
0,0,0,0,0,545
1,0,0,0,0,468
2,0,0,0,0,567
3,0,0,0,0,470
4,0,0,0,0,548
5,0,0,0,0,460
6,0,0,0,0,592
7,0,0,0,0,491
8,0,0,0,0,568
9,0,0,0,0,471
10,0,0,0,0,582
11,0,0,0,0,472
12,0,0,0,0,559
13,0,0,0,0,450
14,0,0,0,0,576
15,0,0,0,0,464
0,0,0,0,0,583
1,0,0,0,0,463
2,0,0,0,0,601
3,0,0,0,0,452
4,0,0,0,0,593
5,0,0,0,0,465
6,0,0,0,0,577
7,0,0,0,0,449
8,0,0,0,0,588
9,0,0,0,0,455
10,0,0,0,0,593
11,0,0,0,0,446
12,0,0,0,0,583
13,0,0,0,0,436
14,0,0,0,0,581
15,0,0,0,0,444
0,0,0,0,0,607
1,0,0,0,0,445
2,0,0,0,0,585
3,0,0,0,0,453
4,0,0,0,0,563
5,0,0,0,0,465
6,0,0,0,0,562
7,0,0,0,0,456
8,0,0,0,0,576
9,0,0,0,0,453
10,0,0,0,0,561
11,0,0,0,0,460
12,0,0,0,0,582
13,0,0,0,0,450
14,0,0,0,0,554
15,0,0,0,0,480
0,0,0,0,0,566
1,0,0,0,0,497
2,0,0,0,0,554
3,0,0,0,0,462
4,0,0,0,0,561
5,0,0,0,0,475
6,0,0,0,0,556
7,0,0,0,0,462
8,0,0,0,0,528
9,0,0,0,0,496
10,0,0,0,0,559
11,0,0,0,0,461
12,0,0,0,0,568
13,0,0,0,0,488
14,0,0,0,0,540
15,0,0,0,0,502
0,0,0,0,0,569
1,0,0,0,0,440
2,0,0,0,0,542
3,0,0,0,0,497
4,0,0,0,0,531
5,0,0,0,0,493
6,0,0,0,0,540
7,0,0,0,0,484
8,0,0,0,0,545
9,0,0,0,0,473
10,0,0,0,0,544
11,0,0,0,0,452
12,0,0,0,0,504
13,0,0,0,0,494
14,0,0,0,0,512
15,0,0,0,0,503
0,0,0,0,0,532
1,0,0,0,0,482
2,0,0,0,0,535
3,0,0,0,0,500
4,0,0,0,0,534
5,0,0,0,0,532
6,0,0,0,0,549
7,0,0,0,0,513
8,0,0,0,0,514
9,0,0,0,0,495
10,0,0,0,0,543
11,0,0,0,0,486
12,0,0,0,0,523
13,0,0,0,0,492
14,0,0,0,0,558
15,0,0,0,0,482
0,0,0,0,0,568
1,0,0,0,0,481
2,0,0,0,0,551
3,0,0,0,0,476
4,0,0,0,0,543
5,0,0,0,0,479
6,0,0,0,0,547
7,0,0,0,0,507
8,0,0,0,0,594
9,0,0,0,0,484
10,0,0,0,0,535
11,0,0,0,0,497
12,0,0,0,0,523
13,0,0,0,0,459
14,0,0,0,0,540
15,0,0,0,0,524
0,0,0,0,0,466
1,0,0,0,0,487
2,0,0,0,0,519
3,0,0,0,0,504
4,0,0,0,0,514
5,0,0,0,0,457
6,0,0,0,0,530
7,0,0,0,0,473
8,0,0,0,0,546
9,0,0,0,0,472
10,0,0,0,0,551
11,0,0,0,0,544
12,0,0,0,0,493
13,0,0,0,0,557
14,0,0,0,0,510
15,0,0,0,0,454
0,0,0,0,0,583
1,0,0,0,0,396
2,0,0,0,0,731
3,0,0,0,0,329
4,0,0,0,0,535
5,0,0,0,0,607
6,0,0,0,0,862
7,0,0,0,0,715
8,0,0,0,0,135
9,0,0,0,0,897
10,0,0,0,0,419
11,0,0,0,0,799
12,0,0,0,0,887
13,0,0,0,0,272
14,0,0,0,0,639
15,0,0,0,0,279
0,0,0,0,0,698
1,0,0,0,0,750
2,0,0,0,0,480
3,0,0,0,0,783
4,0,0,0,0,170
5,0,0,0,0,648
6,0,0,0,0,592
7,0,0,0,0,643
8,0,0,0,0,668
9,0,0,0,0,280
10,0,0,0,0,530
11,0,0,0,0,500
12,0,0,0,0,568
13,0,0,0,0,906
14,0,0,0,0,387
15,0,0,0,0,576
0,0,0,0,0,683
1,0,0,0,0,145
2,0,0,0,0,860
3,0,0,0,0,0
4,0,0,0,0,1022
5,0,0,0,0,547
6,0,0,0,0,1022
7,0,0,0,0,0
8,0,0,0,0,814
9,0,0,0,0,235
10,0,0,0,0,437
11,0,0,0,0,679
12,0,0,0,0,590
13,0,0,0,0,399
14,0,0,0,0,681
15,0,0,0,0,320
0,0,0,0,0,593
1,0,0,0,0,176
2,0,0,0,0,932
3,0,0,0,0,538
4,0,0,0,0,325
5,0,0,0,0,1022
6,0,0,0,0,597
7,0,0,0,0,292
8,0,0,0,0,829
9,0,0,0,0,127
10,0,0,0,0,427
11,0,0,0,0,1023
12,0,0,0,0,339
13,0,0,0,0,625
14,0,0,0,0,1022
15,0,0,0,0,227
0,0,0,0,0,492
1,0,0,0,0,0
2,0,0,0,0,315
3,0,0,0,0,408
4,0,0,0,0,1022
5,0,0,0,0,622
6,0,0,0,0,630
7,0,0,0,0,1023
8,0,0,0,0,444
9,0,0,0,0,290
10,0,0,0,0,465
11,0,0,0,0,506
12,0,0,0,0,659
13,0,0,0,0,646
14,0,0,0,0,622
15,0,0,0,0,524
0,0,0,0,0,1017
1,0,0,0,0,378
2,0,0,0,0,699
3,0,0,0,0,369
4,0,0,0,0,525
5,0,0,0,0,232
6,0,0,0,0,252
7,0,0,0,0,632
8,0,0,0,0,968
9,0,0,0,0,488
10,0,0,0,0,556
11,0,0,0,0,334
12,0,0,0,0,1022
13,0,0,0,0,225
14,0,0,0,0,642
15,0,0,0,0,0
0,0,0,0,0,418
1,0,0,0,0,677
2,0,0,0,0,620
3,0,0,0,0,161
4,0,0,0,0,411
5,0,0,0,0,642
6,0,0,0,0,595
7,0,0,0,0,419
8,0,0,0,0,630
9,0,0,0,0,995
10,0,0,0,0,627
11,0,0,0,0,549
12,0,0,0,0,367
13,0,0,0,0,135
14,0,0,0,0,492
15,0,0,0,0,320
0,0,0,0,0,351
1,0,0,0,0,651
2,0,0,0,0,590
3,0,0,0,0,966
4,0,0,0,0,396
5,0,0,0,0,389
6,0,0,0,0,456
7,0,0,0,0,442
8,0,0,0,0,528
9,0,0,0,0,484
10,0,0,0,0,674
11,0,0,0,0,373
12,0,0,0,0,385
13,0,0,0,0,533
14,0,0,0,0,556
15,0,0,0,0,500
0,0,0,0,0,561
1,0,0,0,0,365
2,0,0,0,0,498
3,0,0,0,0,554
4,0,0,0,0,599
5,0,0,0,0,537
6,0,0,0,0,556
7,0,0,0,0,526
8,0,0,0,0,558
9,0,0,0,0,463
10,0,0,0,0,583
11,0,0,0,0,563
12,0,0,0,0,560
13,0,0,0,0,519
14,0,0,0,0,515
15,0,0,0,0,436
0,0,0,0,0,540
1,0,0,0,0,468
2,0,0,0,0,549
3,0,0,0,0,412
4,0,0,0,0,525
5,0,0,0,0,467
6,0,0,0,0,536
7,0,0,0,0,494
8,0,0,0,0,544
9,0,0,0,0,496
10,0,0,0,0,524
11,0,0,0,0,545
12,0,0,0,0,543
13,0,0,0,0,506
14,0,0,0,0,536
15,0,0,0,0,495
0,0,0,0,0,565
1,0,0,0,0,463
2,0,0,0,0,555
3,0,0,0,0,489
4,0,0,0,0,556
5,0,0,0,0,506
6,0,0,0,0,533
7,0,0,0,0,435
8,0,0,0,0,594
9,0,0,0,0,458
10,0,0,0,0,556
11,0,0,0,0,445
12,0,0,0,0,569
13,0,0,0,0,463
14,0,0,0,0,571
15,0,0,0,0,466
0,0,0,0,0,595
1,0,0,0,0,483
2,0,0,0,0,564
3,0,0,0,0,485
4,0,0,0,0,524
5,0,0,0,0,485
6,0,0,0,0,564
7,0,0,0,0,448
8,0,0,0,0,574
9,0,0,0,0,454
10,0,0,0,0,556
11,0,0,0,0,464
12,0,0,0,0,574
13,0,0,0,0,481
14,0,0,0,0,564
15,0,0,0,0,472
0,0,0,0,0,559
1,0,0,0,0,463
2,0,0,0,0,590
3,0,0,0,0,451
4,0,0,0,0,586
5,0,0,0,0,465
6,0,0,0,0,520
7,0,0,0,0,478
8,0,0,0,0,557
9,0,0,0,0,455
10,0,0,0,0,560
11,0,0,0,0,465
12,0,0,0,0,569
13,0,0,0,0,480
14,0,0,0,0,569
15,0,0,0,0,469
0,0,0,0,0,595
1,0,0,0,0,440
2,0,0,0,0,602
3,0,0,0,0,472
4,0,0,0,0,562
5,0,0,0,0,487
6,0,0,0,0,555
7,0,0,0,0,493
8,0,0,0,0,537
9,0,0,0,0,486
10,0,0,0,0,535
11,0,0,0,0,498
12,0,0,0,0,536
13,0,0,0,0,504
14,0,0,0,0,551
15,0,0,0,0,455
0,0,0,0,0,563
1,0,0,0,0,465
2,0,0,0,0,577
3,0,0,0,0,472
4,0,0,0,0,577
5,0,0,0,0,426
6,0,0,0,0,551
7,0,0,0,0,480
8,0,0,0,0,560
9,0,0,0,0,475
10,0,0,0,0,564
11,0,0,0,0,464
12,0,0,0,0,578
13,0,0,0,0,479
14,0,0,0,0,588
15,0,0,0,0,440
0,0,0,0,0,562
1,0,0,0,0,480
2,0,0,0,0,557
3,0,0,0,0,500
4,0,0,0,0,541
5,0,0,0,0,472
6,0,0,0,0,565
7,0,0,0,0,476
8,0,0,0,0,553
9,0,0,0,0,487
10,0,0,0,0,554
11,0,0,0,0,479
12,0,0,0,0,554
13,0,0,0,0,488
14,0,0,0,0,552
15,0,0,0,0,477
0,0,0,0,0,561
1,0,0,0,0,455
2,0,0,0,0,555
3,0,0,0,0,513
4,0,0,0,0,580
5,0,0,0,0,482
6,0,0,0,0,564
7,0,0,0,0,498
8,0,0,0,0,558
9,0,0,0,0,470
10,0,0,0,0,569
11,0,0,0,0,476
12,0,0,0,0,571
13,0,0,0,0,493
14,0,0,0,0,574
15,0,0,0,0,469
0,0,0,0,0,541
1,0,0,0,0,468
2,0,0,0,0,553
3,0,0,0,0,478
4,0,0,0,0,579
5,0,0,0,0,473
6,0,0,0,0,576
7,0,0,0,0,486
8,0,0,0,0,524
9,0,0,0,0,499
10,0,0,0,0,550
11,0,0,0,0,466
12,0,0,0,0,574
13,0,0,0,0,460
14,0,0,0,0,586
15,0,0,0,0,428
0,0,0,0,0,605
1,0,0,0,0,461
2,0,0,0,0,540
3,0,0,0,0,556
4,0,0,0,0,572
5,0,0,0,0,388
6,0,0,0,0,640
7,0,0,0,0,318
8,0,0,0,0,705
9,0,0,0,0,482
10,0,0,0,0,224
11,0,0,0,0,685
12,0,0,0,0,403
13,0,0,0,0,707
14,0,0,0,0,186
15,0,0,0,0,672
0,0,0,0,0,251
1,0,0,0,0,672
2,0,0,0,0,595
3,0,0,0,0,44
4,0,0,0,0,686
5,0,0,0,0,384
6,0,0,0,0,342
7,0,0,0,0,821
8,0,0,0,0,685
9,0,0,0,0,810
10,0,0,0,0,515
11,0,0,0,0,304
12,0,0,0,0,767
13,0,0,0,0,420
14,0,0,0,0,1022
15,0,0,0,0,7
0,0,0,0,0,945
1,0,0,0,0,408
2,0,0,0,0,327
3,0,0,0,0,411
4,0,0,0,0,934
5,0,0,0,0,271
6,0,0,0,0,1022
7,0,0,0,0,166
8,0,0,0,0,902
9,0,0,0,0,4
10,0,0,0,0,1022
11,0,0,0,0,396
12,0,0,0,0,305
13,0,0,0,0,403
14,0,0,0,0,611
15,0,0,0,0,345
0,0,0,0,0,762
1,0,0,0,0,827
2,0,0,0,0,183
3,0,0,0,0,344
4,0,0,0,0,443
5,0,0,0,0,274
6,0,0,0,0,360
7,0,0,0,0,799
8,0,0,0,0,966
9,0,0,0,0,227
10,0,0,0,0,912
11,0,0,0,0,353
12,0,0,0,0,652
13,0,0,0,0,229
14,0,0,0,0,429
15,0,0,0,0,491
0,0,0,0,0,556
1,0,0,0,0,664
2,0,0,0,0,211
3,0,0,0,0,52
4,0,0,0,0,658
5,0,0,0,0,414
6,0,0,0,0,795
7,0,0,0,0,435
8,0,0,0,0,602
9,0,0,0,0,323
10,0,0,0,0,703
11,0,0,0,0,609
12,0,0,0,0,721
13,0,0,0,0,568
14,0,0,0,0,657
15,0,0,0,0,826
0,0,0,0,0,1022
1,0,0,0,0,463
2,0,0,0,0,994
3,0,0,0,0,585
4,0,0,0,0,129
5,0,0,0,0,428
6,0,0,0,0,773
7,0,0,0,0,575
8,0,0,0,0,385
9,0,0,0,0,766
10,0,0,0,0,726
11,0,0,0,0,428
12,0,0,0,0,765
13,0,0,0,0,611
14,0,0,0,0,502
15,0,0,0,0,478
0,0,0,0,0,499
1,0,0,0,0,567
2,0,0,0,0,480
3,0,0,0,0,386
4,0,0,0,0,529
5,0,0,0,0,469
6,0,0,0,0,735
7,0,0,0,0,613
8,0,0,0,0,724
9,0,0,0,0,953
10,0,0,0,0,563
11,0,0,0,0,46
12,0,0,0,0,1011
13,0,0,0,0,422
14,0,0,0,0,662
15,0,0,0,0,924
0,0,0,0,0,629
1,0,0,0,0,572
2,0,0,0,0,703
3,0,0,0,0,263
4,0,0,0,0,555
5,0,0,0,0,455
6,0,0,0,0,475
7,0,0,0,0,417
8,0,0,0,0,730
9,0,0,0,0,449
10,0,0,0,0,683
11,0,0,0,0,466
12,0,0,0,0,724
13,0,0,0,0,455
14,0,0,0,0,632
15,0,0,0,0,471
0,0,0,0,0,664
1,0,0,0,0,408
2,0,0,0,0,649
3,0,0,0,0,469
4,0,0,0,0,655
5,0,0,0,0,453
6,0,0,0,0,698
7,0,0,0,0,394
8,0,0,0,0,685
9,0,0,0,0,447
10,0,0,0,0,682
11,0,0,0,0,471
12,0,0,0,0,679
13,0,0,0,0,476
14,0,0,0,0,660
15,0,0,0,0,457
0,0,0,0,0,639
1,0,0,0,0,423
2,0,0,0,0,662
3,0,0,0,0,465
4,0,0,0,0,699
5,0,0,0,0,441
6,0,0,0,0,697
7,0,0,0,0,424
8,0,0,0,0,674
9,0,0,0,0,407
10,0,0,0,0,704
11,0,0,0,0,423
12,0,0,0,0,665
13,0,0,0,0,433
14,0,0,0,0,697
15,0,0,0,0,398
0,0,0,0,0,668
1,0,0,0,0,441
2,0,0,0,0,660
3,0,0,0,0,408
4,0,0,0,0,665
5,0,0,0,0,419
6,0,0,0,0,656
7,0,0,0,0,432
8,0,0,0,0,649
9,0,0,0,0,439
10,0,0,0,0,664
11,0,0,0,0,435
12,0,0,0,0,628
13,0,0,0,0,459
14,0,0,0,0,636
15,0,0,0,0,459
0,0,0,0,0,582
1,0,0,0,0,485
2,0,0,0,0,611
3,0,0,0,0,447
4,0,0,0,0,613
5,0,0,0,0,474
6,0,0,0,0,584
7,0,0,0,0,494
8,0,0,0,0,586
9,0,0,0,0,480
10,0,0,0,0,575
11,0,0,0,0,470
12,0,0,0,0,578
13,0,0,0,0,489
14,0,0,0,0,589
15,0,0,0,0,459
0,0,0,0,0,601
1,0,0,0,0,481
2,0,0,0,0,591
3,0,0,0,0,462
4,0,0,0,0,612
5,0,0,0,0,488
6,0,0,0,0,612
7,0,0,0,0,459
8,0,0,0,0,600
9,0,0,0,0,500
10,0,0,0,0,563
11,0,0,0,0,467
12,0,0,0,0,579
13,0,0,0,0,489
14,0,0,0,0,564
15,0,0,0,0,514
0,0,0,0,0,574
1,0,0,0,0,521
2,0,0,0,0,577
3,0,0,0,0,502
4,0,0,0,0,586
5,0,0,0,0,500
6,0,0,0,0,560
7,0,0,0,0,489
8,0,0,0,0,572
9,0,0,0,0,505
10,0,0,0,0,579
11,0,0,0,0,505
12,0,0,0,0,627
13,0,0,0,0,481
14,0,0,0,0,593
15,0,0,0,0,507
0,0,0,0,0,570
1,0,0,0,0,511
2,0,0,0,0,572
3,0,0,0,0,512
4,0,0,0,0,580
5,0,0,0,0,501
6,0,0,0,0,569
7,0,0,0,0,514
8,0,0,0,0,585
9,0,0,0,0,496
10,0,0,0,0,538
11,0,0,0,0,489
12,0,0,0,0,551
13,0,0,0,0,520
14,0,0,0,0,561
15,0,0,0,0,524
0,0,0,0,0,544
1,0,0,0,0,509
2,0,0,0,0,511
3,0,0,0,0,551
4,0,0,0,0,548
5,0,0,0,0,504
6,0,0,0,0,580
7,0,0,0,0,495
8,0,0,0,0,571
9,0,0,0,0,502
10,0,0,0,0,563
11,0,0,0,0,508
12,0,0,0,0,581
13,0,0,0,0,511
14,0,0,0,0,574
15,0,0,0,0,503
0,0,0,0,0,577
1,0,0,0,0,514
2,0,0,0,0,576
3,0,0,0,0,496
4,0,0,0,0,580
5,0,0,0,0,500
6,0,0,0,0,572
7,0,0,0,0,510
8,0,0,0,0,568
9,0,0,0,0,491
10,0,0,0,0,564
11,0,0,0,0,508
12,0,0,0,0,577
13,0,0,0,0,509
14,0,0,0,0,588
15,0,0,0,0,504
0,0,0,0,0,563
1,0,0,0,0,510
2,0,0,0,0,572
3,0,0,0,0,498
4,0,0,0,0,580
5,0,0,0,0,510
6,0,0,0,0,598
7,0,0,0,0,490
8,0,0,0,0,609
9,0,0,0,0,441
10,0,0,0,0,636
11,0,0,0,0,479
12,0,0,0,0,569
13,0,0,0,0,522
14,0,0,0,0,580
15,0,0,0,0,502
0,0,0,0,0,576
1,0,0,0,0,505
2,0,0,0,0,537
3,0,0,0,0,514
4,0,0,0,0,573
5,0,0,0,0,505
6,0,0,0,0,580
7,0,0,0,0,511
8,0,0,0,0,573
9,0,0,0,0,474
10,0,0,0,0,583
11,0,0,0,0,489
12,0,0,0,0,622
13,0,0,0,0,469
14,0,0,0,0,568
15,0,0,0,0,489
0,0,0,0,0,616
1,0,0,0,0,494
2,0,0,0,0,563
3,0,0,0,0,500
4,0,0,0,0,582
5,0,0,0,0,513
6,0,0,0,0,583
7,0,0,0,0,486
8,0,0,0,0,573
9,0,0,0,0,502
10,0,0,0,0,570
11,0,0,0,0,493
12,0,0,0,0,591
13,0,0,0,0,502
14,0,0,0,0,560
15,0,0,0,0,510
0,0,0,0,0,594
1,0,0,0,0,477
2,0,0,0,0,587
3,0,0,0,0,451
4,0,0,0,0,619
5,0,0,0,0,492
6,0,0,0,0,578
7,0,0,0,0,529
8,0,0,0,0,560
9,0,0,0,0,492
10,0,0,0,0,565
11,0,0,0,0,494
12,0,0,0,0,591
13,0,0,0,0,494
14,0,0,0,0,575
15,0,0,0,0,498
0,0,0,0,0,585
1,0,0,0,0,505
2,0,0,0,0,606
3,0,0,0,0,480
4,0,0,0,0,596
5,0,0,0,0,488
6,0,0,0,0,558
7,0,0,0,0,475
8,0,0,0,0,614
9,0,0,0,0,461
10,0,0,0,0,573
11,0,0,0,0,551
12,0,0,0,0,540
13,0,0,0,0,508
14,0,0,0,0,535
15,0,0,0,0,576
0,0,0,0,0,522
1,0,0,0,0,433
2,0,0,0,0,671
3,0,0,0,0,377
4,0,0,0,0,736
5,0,0,0,0,406
6,0,0,0,0,572
7,0,0,0,0,495
8,0,0,0,0,580
9,0,0,0,0,496
10,0,0,0,0,688
11,0,0,0,0,460
12,0,0,0,0,662
13,0,0,0,0,504
14,0,0,0,0,403
15,0,0,0,0,571
0,0,0,0,0,468
1,0,0,0,0,556
2,0,0,0,0,327
3,0,0,0,0,614
4,0,0,0,0,593
5,0,0,0,0,468
6,0,0,0,0,620
7,0,0,0,0,537
8,0,0,0,0,438
9,0,0,0,0,648
10,0,0,0,0,503
11,0,0,0,0,179
12,0,0,0,0,901
13,0,0,0,0,612
14,0,0,0,0,826
15,0,0,0,0,375
0,0,0,0,0,533
1,0,0,0,0,353
2,0,0,0,0,687
3,0,0,0,0,504
4,0,0,0,0,928
5,0,0,0,0,406
6,0,0,0,0,729
7,0,0,0,0,783
8,0,0,0,0,387
9,0,0,0,0,670
10,0,0,0,0,556
11,0,0,0,0,444
12,0,0,0,0,819
13,0,0,0,0,409
14,0,0,0,0,681
15,0,0,0,0,760
0,0,0,0,0,732
1,0,0,0,0,509
2,0,0,0,0,657
3,0,0,0,0,312
4,0,0,0,0,709
5,0,0,0,0,291
6,0,0,0,0,761
7,0,0,0,0,336
8,0,0,0,0,247
9,0,0,0,0,365
10,0,0,0,0,731
11,0,0,0,0,278
12,0,0,0,0,978
13,0,0,0,0,441
14,0,0,0,0,519
15,0,0,0,0,878
0,0,0,0,0,703
1,0,0,0,0,209
2,0,0,0,0,577
3,0,0,0,0,609
4,0,0,0,0,454
5,0,0,0,0,678
6,0,0,0,0,846
7,0,0,0,0,321
8,0,0,0,0,846
9,0,0,0,0,343
10,0,0,0,0,408
11,0,0,0,0,567
12,0,0,0,0,546
13,0,0,0,0,487
14,0,0,0,0,849
15,0,0,0,0,490
0,0,0,0,0,625
1,0,0,0,0,459
2,0,0,0,0,763
3,0,0,0,0,403
4,0,0,0,0,786
5,0,0,0,0,411
6,0,0,0,0,876
7,0,0,0,0,114
8,0,0,0,0,826
9,0,0,0,0,472
10,0,0,0,0,756
11,0,0,0,0,423
12,0,0,0,0,742
13,0,0,0,0,285
14,0,0,0,0,1022
15,0,0,0,0,285
0,0,0,0,0,532
1,0,0,0,0,524
2,0,0,0,0,737
3,0,0,0,0,519
4,0,0,0,0,713
5,0,0,0,0,709
6,0,0,0,0,712
7,0,0,0,0,492
8,0,0,0,0,575
9,0,0,0,0,491
10,0,0,0,0,959
11,0,0,0,0,594
12,0,0,0,0,883
13,0,0,0,0,482
14,0,0,0,0,1022
15,0,0,0,0,467
0,0,0,0,0,801
1,0,0,0,0,448
2,0,0,0,0,841
3,0,0,0,0,481
4,0,0,0,0,882
5,0,0,0,0,521
6,0,0,0,0,567
7,0,0,0,0,495
8,0,0,0,0,769
9,0,0,0,0,408
10,0,0,0,0,681
11,0,0,0,0,408
12,0,0,0,0,747
13,0,0,0,0,393
14,0,0,0,0,746
15,0,0,0,0,432
0,0,0,0,0,773
1,0,0,0,0,405
2,0,0,0,0,764
3,0,0,0,0,446
4,0,0,0,0,735
5,0,0,0,0,440
6,0,0,0,0,706
7,0,0,0,0,447
8,0,0,0,0,760
9,0,0,0,0,427
10,0,0,0,0,724
11,0,0,0,0,406
12,0,0,0,0,784
13,0,0,0,0,415
14,0,0,0,0,717
15,0,0,0,0,422
0,0,0,0,0,721
1,0,0,0,0,417
2,0,0,0,0,714
3,0,0,0,0,411
4,0,0,0,0,718
5,0,0,0,0,430
6,0,0,0,0,644
7,0,0,0,0,465
8,0,0,0,0,690
9,0,0,0,0,452
10,0,0,0,0,662
11,0,0,0,0,456
12,0,0,0,0,647
13,0,0,0,0,465
14,0,0,0,0,644
15,0,0,0,0,460
0,0,0,0,0,667
1,0,0,0,0,476
2,0,0,0,0,636
3,0,0,0,0,490
4,0,0,0,0,632
5,0,0,0,0,485
6,0,0,0,0,625
7,0,0,0,0,487
8,0,0,0,0,622
9,0,0,0,0,464
10,0,0,0,0,625
11,0,0,0,0,470
12,0,0,0,0,604
13,0,0,0,0,481
14,0,0,0,0,615
15,0,0,0,0,500
0,0,0,0,0,574
1,0,0,0,0,496
2,0,0,0,0,581
3,0,0,0,0,487
4,0,0,0,0,557
5,0,0,0,0,544
6,0,0,0,0,562
7,0,0,0,0,500
8,0,0,0,0,560
9,0,0,0,0,542
10,0,0,0,0,551
11,0,0,0,0,541
12,0,0,0,0,534
13,0,0,0,0,535
14,0,0,0,0,559
15,0,0,0,0,509
0,0,0,0,0,585
1,0,0,0,0,493
2,0,0,0,0,551
3,0,0,0,0,534
4,0,0,0,0,549
5,0,0,0,0,517
6,0,0,0,0,558
7,0,0,0,0,506
8,0,0,0,0,539
9,0,0,0,0,530
10,0,0,0,0,558
11,0,0,0,0,483
12,0,0,0,0,536
13,0,0,0,0,514
14,0,0,0,0,551
15,0,0,0,0,506
0,0,0,0,0,521
1,0,0,0,0,529
2,0,0,0,0,541
3,0,0,0,0,526
4,0,0,0,0,547
5,0,0,0,0,502
6,0,0,0,0,578
7,0,0,0,0,519
8,0,0,0,0,547
9,0,0,0,0,516
10,0,0,0,0,578
11,0,0,0,0,510
12,0,0,0,0,527
13,0,0,0,0,491
14,0,0,0,0,561
15,0,0,0,0,527
0,0,0,0,0,533
1,0,0,0,0,524
2,0,0,0,0,530
3,0,0,0,0,513
4,0,0,0,0,525
5,0,0,0,0,522
6,0,0,0,0,567
7,0,0,0,0,523
8,0,0,0,0,518
9,0,0,0,0,530
10,0,0,0,0,525
11,0,0,0,0,534
12,0,0,0,0,530
13,0,0,0,0,514
14,0,0,0,0,526
15,0,0,0,0,532
0,0,0,0,0,492
1,0,0,0,0,543
2,0,0,0,0,520
3,0,0,0,0,529
4,0,0,0,0,518
5,0,0,0,0,534
6,0,0,0,0,520
7,0,0,0,0,495
8,0,0,0,0,542
9,0,0,0,0,513
10,0,0,0,0,519
11,0,0,0,0,539
12,0,0,0,0,504
13,0,0,0,0,527
14,0,0,0,0,519
15,0,0,0,0,531
0,0,0,0,0,555
1,0,0,0,0,512
2,0,0,0,0,511
3,0,0,0,0,529
4,0,0,0,0,526
5,0,0,0,0,532
6,0,0,0,0,514
7,0,0,0,0,528
8,0,0,0,0,527
9,0,0,0,0,521
10,0,0,0,0,531
11,0,0,0,0,531
12,0,0,0,0,514
13,0,0,0,0,533
14,0,0,0,0,524
15,0,0,0,0,549
0,0,0,0,0,513
1,0,0,0,0,521
2,0,0,0,0,521
3,0,0,0,0,551
4,0,0,0,0,536
5,0,0,0,0,512
6,0,0,0,0,520
7,0,0,0,0,520
8,0,0,0,0,512
9,0,0,0,0,518
10,0,0,0,0,552
11,0,0,0,0,524
12,0,0,0,0,503
13,0,0,0,0,513
14,0,0,0,0,515
15,0,0,0,0,499
0,0,0,0,0,533
1,0,0,0,0,536
2,0,0,0,0,529
3,0,0,0,0,513
4,0,0,0,0,517
5,0,0,0,0,544
6,0,0,0,0,524
7,0,0,0,0,526
8,0,0,0,0,523
9,0,0,0,0,534
10,0,0,0,0,515
11,0,0,0,0,524
12,0,0,0,0,532
13,0,0,0,0,519
14,0,0,0,0,527
15,0,0,0,0,502
0,0,0,0,0,542
1,0,0,0,0,511
2,0,0,0,0,521
3,0,0,0,0,530
4,0,0,0,0,527
5,0,0,0,0,524
6,0,0,0,0,553
7,0,0,0,0,491
8,0,0,0,0,555
9,0,0,0,0,509
10,0,0,0,0,505
11,0,0,0,0,531
12,0,0,0,0,524
13,0,0,0,0,515
14,0,0,0,0,502
15,0,0,0,0,508
0,0,0,0,0,510
1,0,0,0,0,525
2,0,0,0,0,551
3,0,0,0,0,517
4,0,0,0,0,521
5,0,0,0,0,517
6,0,0,0,0,533
7,0,0,0,0,540
8,0,0,0,0,518
9,0,0,0,0,523
10,0,0,0,0,493
11,0,0,0,0,511
12,0,0,0,0,543
13,0,0,0,0,525
14,0,0,0,0,577
15,0,0,0,0,514
0,0,0,0,0,539
1,0,0,0,0,503
2,0,0,0,0,558
3,0,0,0,0,518
4,0,0,0,0,551
5,0,0,0,0,524
6,0,0,0,0,560
7,0,0,0,0,502
8,0,0,0,0,576
9,0,0,0,0,476
10,0,0,0,0,585
11,0,0,0,0,499
12,0,0,0,0,577
13,0,0,0,0,481
14,0,0,0,0,576
15,0,0,0,0,513
0,0,0,0,0,571
1,0,0,0,0,505
2,0,0,0,0,566
3,0,0,0,0,528
4,0,0,0,0,548
5,0,0,0,0,515
6,0,0,0,0,609
7,0,0,0,0,501
8,0,0,0,0,563
9,0,0,0,0,496
10,0,0,0,0,545
11,0,0,0,0,500
12,0,0,0,0,553
13,0,0,0,0,495
14,0,0,0,0,572
15,0,0,0,0,483
0,0,0,0,0,579
1,0,0,0,0,489
2,0,0,0,0,534
3,0,0,0,0,520
4,0,0,0,0,521
5,0,0,0,0,535
6,0,0,0,0,504
7,0,0,0,0,525
8,0,0,0,0,514
9,0,0,0,0,521
10,0,0,0,0,559
11,0,0,0,0,457
12,0,0,0,0,532
13,0,0,0,0,509
14,0,0,0,0,500
15,0,0,0,0,516
0,0,0,0,0,498
1,0,0,0,0,549
2,0,0,0,0,488
3,0,0,0,0,526
4,0,0,0,0,530
5,0,0,0,0,527
6,0,0,0,0,519
7,0,0,0,0,500
8,0,0,0,0,535
9,0,0,0,0,498
10,0,0,0,0,501
11,0,0,0,0,506
12,0,0,0,0,523
13,0,0,0,0,514
14,0,0,0,0,533
15,0,0,0,0,525
0,0,0,0,0,478
1,0,0,0,0,566
2,0,0,0,0,491
3,0,0,0,0,488
4,0,0,0,0,531
5,0,0,0,0,507
6,0,0,0,0,506
7,0,0,0,0,503
8,0,0,0,0,516
9,0,0,0,0,502
10,0,0,0,0,498
11,0,0,0,0,531
12,0,0,0,0,476
13,0,0,0,0,515
14,0,0,0,0,534
15,0,0,0,0,493
0,0,0,0,0,497
1,0,0,0,0,508
2,0,0,0,0,535
3,0,0,0,0,510
4,0,0,0,0,542
5,0,0,0,0,504
6,0,0,0,0,574
7,0,0,0,0,478
8,0,0,0,0,560
9,0,0,0,0,498
10,0,0,0,0,564
11,0,0,0,0,488
12,0,0,0,0,505
13,0,0,0,0,524
14,0,0,0,0,578
15,0,0,0,0,494
0,0,0,0,0,545
1,0,0,0,0,512
2,0,0,0,0,522
3,0,0,0,0,503
4,0,0,0,0,539
5,0,0,0,0,514
6,0,0,0,0,539
7,0,0,0,0,479
8,0,0,0,0,518
9,0,0,0,0,487
10,0,0,0,0,516
11,0,0,0,0,488
12,0,0,0,0,554
13,0,0,0,0,495
14,0,0,0,0,540
15,0,0,0,0,524
0,0,0,0,0,539
1,0,0,0,0,528
2,0,0,0,0,452
3,0,0,0,0,536
4,0,0,0,0,448
5,0,0,0,0,536
6,0,0,0,0,460
7,0,0,0,0,536
8,0,0,0,0,539
9,0,0,0,0,509
10,0,0,0,0,528
11,0,0,0,0,512
12,0,0,0,0,536
13,0,0,0,0,499
14,0,0,0,0,547
15,0,0,0,0,510
0,0,0,0,0,561
1,0,0,0,0,472
2,0,0,0,0,552
3,0,0,0,0,497
4,0,0,0,0,574
5,0,0,0,0,487
6,0,0,0,0,553
7,0,0,0,0,514
8,0,0,0,0,568
9,0,0,0,0,456
10,0,0,0,0,497
11,0,0,0,0,531
12,0,0,0,0,477
13,0,0,0,0,540
14,0,0,0,0,466
15,0,0,0,0,542
0,0,0,0,0,488
1,0,0,0,0,468
2,0,0,0,0,488
3,0,0,0,0,539
4,0,0,0,0,459
5,0,0,0,0,517
6,0,0,0,0,436
7,0,0,0,0,533
8,0,0,0,0,474
9,0,0,0,0,524
10,0,0,0,0,462
11,0,0,0,0,557
12,0,0,0,0,513
13,0,0,0,0,504
14,0,0,0,0,489
15,0,0,0,0,527
0,0,0,0,0,456
1,0,0,0,0,545
2,0,0,0,0,489
3,0,0,0,0,508
4,0,0,0,0,486
5,0,0,0,0,531
6,0,0,0,0,481
7,0,0,0,0,519
8,0,0,0,0,497
9,0,0,0,0,547
10,0,0,0,0,458
11,0,0,0,0,512
12,0,0,0,0,487
13,0,0,0,0,521
14,0,0,0,0,484
15,0,0,0,0,509
0,0,0,0,0,470
1,0,0,0,0,538
2,0,0,0,0,441
3,0,0,0,0,564
4,0,0,0,0,423
5,0,0,0,0,549
6,0,0,0,0,426
7,0,0,0,0,557
8,0,0,0,0,469
9,0,0,0,0,514
10,0,0,0,0,462
11,0,0,0,0,535
12,0,0,0,0,435
13,0,0,0,0,523
14,0,0,0,0,443
15,0,0,0,0,543
0,0,0,0,0,450
1,0,0,0,0,534
2,0,0,0,0,440
3,0,0,0,0,567
4,0,0,0,0,430
5,0,0,0,0,532
6,0,0,0,0,441
7,0,0,0,0,550
8,0,0,0,0,445
9,0,0,0,0,515
10,0,0,0,0,440
11,0,0,0,0,534
12,0,0,0,0,415
13,0,0,0,0,533
14,0,0,0,0,433
15,0,0,0,0,540
0,0,0,0,0,447
1,0,0,0,0,538
2,0,0,0,0,435
3,0,0,0,0,533
4,0,0,0,0,432
5,0,0,0,0,553
6,0,0,0,0,422
7,0,0,0,0,557
8,0,0,0,0,440
9,0,0,0,0,518
10,0,0,0,0,486
11,0,0,0,0,548
12,0,0,0,0,443
13,0,0,0,0,544
14,0,0,0,0,455
15,0,0,0,0,533
0,0,0,0,0,463
1,0,0,0,0,527
2,0,0,0,0,464
3,0,0,0,0,545
4,0,0,0,0,489
5,0,0,0,0,579
6,0,0,0,0,496
7,0,0,0,0,473
8,0,0,0,0,528
9,0,0,0,0,484
10,0,0,0,0,510
11,0,0,0,0,554
12,0,0,0,0,440
13,0,0,0,0,580
14,0,0,0,0,500
15,0,0,0,0,438
0,0,0,0,0,342
1,0,0,0,0,614
2,0,0,0,0,411
3,0,0,0,0,527
4,0,0,0,0,511
5,0,0,0,0,416
6,0,0,0,0,568
7,0,0,0,0,462
8,0,0,0,0,546
9,0,0,0,0,414
10,0,0,0,0,350
11,0,0,0,0,659
12,0,0,0,0,287
13,0,0,0,0,636
14,0,0,0,0,483
15,0,0,0,0,411
0,0,0,0,0,601
1,0,0,0,0,388
2,0,0,0,0,702
3,0,0,0,0,490
4,0,0,0,0,405
5,0,0,0,0,404
6,0,0,0,0,823
7,0,0,0,0,382
8,0,0,0,0,479
9,0,0,0,0,531
10,0,0,0,0,648
11,0,0,0,0,464
12,0,0,0,0,561
13,0,0,0,0,582
14,0,0,0,0,550
15,0,0,0,0,541
0,0,0,0,0,600
1,0,0,0,0,321
2,0,0,0,0,762
3,0,0,0,0,324
4,0,0,0,0,614
5,0,0,0,0,569
6,0,0,0,0,713
7,0,0,0,0,880
8,0,0,0,0,468
9,0,0,0,0,81
10,0,0,0,0,468
11,0,0,0,0,415
12,0,0,0,0,732
13,0,0,0,0,569
14,0,0,0,0,169
15,0,0,0,0,580
0,0,0,0,0,339
1,0,0,0,0,323
2,0,0,0,0,728
3,0,0,0,0,850
4,0,0,0,0,836
5,0,0,0,0,573
6,0,0,0,0,667
7,0,0,0,0,413
8,0,0,0,0,667
9,0,0,0,0,515
10,0,0,0,0,611
11,0,0,0,0,438
12,0,0,0,0,607
13,0,0,0,0,690
14,0,0,0,0,726
15,0,0,0,0,493
0,0,0,0,0,633
1,0,0,0,0,436
2,0,0,0,0,598
3,0,0,0,0,331
4,0,0,0,0,945
5,0,0,0,0,523
6,0,0,0,0,506
7,0,0,0,0,403
8,0,0,0,0,511
9,0,0,0,0,521
10,0,0,0,0,663
11,0,0,0,0,985
12,0,0,0,0,292
13,0,0,0,0,514
14,0,0,0,0,607
15,0,0,0,0,562
0,0,0,0,0,696
1,0,0,0,0,226
2,0,0,0,0,620
3,0,0,0,0,496
4,0,0,0,0,815
5,0,0,0,0,416
6,0,0,0,0,487
7,0,0,0,0,403
8,0,0,0,0,851
9,0,0,0,0,407
10,0,0,0,0,445
11,0,0,0,0,498
12,0,0,0,0,791
13,0,0,0,0,764
14,0,0,0,0,511
15,0,0,0,0,213
0,0,0,0,0,425
1,0,0,0,0,575
2,0,0,0,0,443
3,0,0,0,0,307
4,0,0,0,0,686
5,0,0,0,0,210
6,0,0,0,0,534
7,0,0,0,0,110
8,0,0,0,0,568
9,0,0,0,0,88
10,0,0,0,0,527
11,0,0,0,0,497
12,0,0,0,0,713
13,0,0,0,0,220
14,0,0,0,0,568
15,0,0,0,0,609
0,0,0,0,0,597
1,0,0,0,0,575
2,0,0,0,0,1022
3,0,0,0,0,489
4,0,0,0,0,612
5,0,0,0,0,491
6,0,0,0,0,639
7,0,0,0,0,216
8,0,0,0,0,572
9,0,0,0,0,466
10,0,0,0,0,448
11,0,0,0,0,455
12,0,0,0,0,554
13,0,0,0,0,467
14,0,0,0,0,633
15,0,0,0,0,444
0,0,0,0,0,603
1,0,0,0,0,577
2,0,0,0,0,542
3,0,0,0,0,502
4,0,0,0,0,580
5,0,0,0,0,568
6,0,0,0,0,583
7,0,0,0,0,431
8,0,0,0,0,559
9,0,0,0,0,473
10,0,0,0,0,588
11,0,0,0,0,432
12,0,0,0,0,624
13,0,0,0,0,492
14,0,0,0,0,573
15,0,0,0,0,475
0,0,0,0,0,610
1,0,0,0,0,575
2,0,0,0,0,589
3,0,0,0,0,462
4,0,0,0,0,596
5,0,0,0,0,491
6,0,0,0,0,652
7,0,0,0,0,531
8,0,0,0,0,531
9,0,0,0,0,502
10,0,0,0,0,584
11,0,0,0,0,460
12,0,0,0,0,592
13,0,0,0,0,501
14,0,0,0,0,665
15,0,0,0,0,504
0,0,0,0,0,616
1,0,0,0,0,491
2,0,0,0,0,628
3,0,0,0,0,491
4,0,0,0,0,618
5,0,0,0,0,469
6,0,0,0,0,643
7,0,0,0,0,475
8,0,0,0,0,604
9,0,0,0,0,496
10,0,0,0,0,598
11,0,0,0,0,467
12,0,0,0,0,631
13,0,0,0,0,472
14,0,0,0,0,611
15,0,0,0,0,491
0,0,0,0,0,618
1,0,0,0,0,494
2,0,0,0,0,617
3,0,0,0,0,489
4,0,0,0,0,620
5,0,0,0,0,494
6,0,0,0,0,617
7,0,0,0,0,480
8,0,0,0,0,593
9,0,0,0,0,502
10,0,0,0,0,599
11,0,0,0,0,492
12,0,0,0,0,598
13,0,0,0,0,465
14,0,0,0,0,603
15,0,0,0,0,469
0,0,0,0,0,607
1,0,0,0,0,520
2,0,0,0,0,590
3,0,0,0,0,489
4,0,0,0,0,599
5,0,0,0,0,511
6,0,0,0,0,590
7,0,0,0,0,497
8,0,0,0,0,597
9,0,0,0,0,493
10,0,0,0,0,567
11,0,0,0,0,510
12,0,0,0,0,567
13,0,0,0,0,490
14,0,0,0,0,556
15,0,0,0,0,506
0,0,0,0,0,522
1,0,0,0,0,491
2,0,0,0,0,575
3,0,0,0,0,491
4,0,0,0,0,592
5,0,0,0,0,492
6,0,0,0,0,600
7,0,0,0,0,495
8,0,0,0,0,583
9,0,0,0,0,480
10,0,0,0,0,584
11,0,0,0,0,483
12,0,0,0,0,531
13,0,0,0,0,535
14,0,0,0,0,557
15,0,0,0,0,501
0,0,0,0,0,566
1,0,0,0,0,482
2,0,0,0,0,567
3,0,0,0,0,505
4,0,0,0,0,576
5,0,0,0,0,490
6,0,0,0,0,592
7,0,0,0,0,497
8,0,0,0,0,556
9,0,0,0,0,502
10,0,0,0,0,548
11,0,0,0,0,507
12,0,0,0,0,534
13,0,0,0,0,488
14,0,0,0,0,612
15,0,0,0,0,427
0,0,0,0,0,520
1,0,0,0,0,535
2,0,0,0,0,514
3,0,0,0,0,511
4,0,0,0,0,510
5,0,0,0,0,497
6,0,0,0,0,488
7,0,0,0,0,528
8,0,0,0,0,450
9,0,0,0,0,542
10,0,0,0,0,463
11,0,0,0,0,542
12,0,0,0,0,517
13,0,0,0,0,502
14,0,0,0,0,529
15,0,0,0,0,502
0,0,0,0,0,524
1,0,0,0,0,514
2,0,0,0,0,514
3,0,0,0,0,536
4,0,0,0,0,528
5,0,0,0,0,531
6,0,0,0,0,514
7,0,0,0,0,503
8,0,0,0,0,489
9,0,0,0,0,507
10,0,0,0,0,475
11,0,0,0,0,511
12,0,0,0,0,508
13,0,0,0,0,506
14,0,0,0,0,437
15,0,0,0,0,665
0,0,0,0,0,398
1,0,0,0,0,508
2,0,0,0,0,398
3,0,0,0,0,560
4,0,0,0,0,396
5,0,0,0,0,633
6,0,0,0,0,529
7,0,0,0,0,486
8,0,0,0,0,460
9,0,0,0,0,516
10,0,0,0,0,497
11,0,0,0,0,485
12,0,0,0,0,425
13,0,0,0,0,531
14,0,0,0,0,502
15,0,0,0,0,606
0,0,0,0,0,381
1,0,0,0,0,560
2,0,0,0,0,467
3,0,0,0,0,497
4,0,0,0,0,536
5,0,0,0,0,501
6,0,0,0,0,527
7,0,0,0,0,402
8,0,0,0,0,448
9,0,0,0,0,396
10,0,0,0,0,548
11,0,0,0,0,527
12,0,0,0,0,562
13,0,0,0,0,439
14,0,0,0,0,696
15,0,0,0,0,372
0,0,0,0,0,382
1,0,0,0,0,586
2,0,0,0,0,407
3,0,0,0,0,555
4,0,0,0,0,435
5,0,0,0,0,461
6,0,0,0,0,514
7,0,0,0,0,385
8,0,0,0,0,531
9,0,0,0,0,642
10,0,0,0,0,481
11,0,0,0,0,544
12,0,0,0,0,604
13,0,0,0,0,159
14,0,0,0,0,954
15,0,0,0,0,317
0,0,0,0,0,513
1,0,0,0,0,605
2,0,0,0,0,671
3,0,0,0,0,517
4,0,0,0,0,598
5,0,0,0,0,562
6,0,0,0,0,523
7,0,0,0,0,431
8,0,0,0,0,639
9,0,0,0,0,442
10,0,0,0,0,508
11,0,0,0,0,652
12,0,0,0,0,545
13,0,0,0,0,257
14,0,0,0,0,1022
15,0,0,0,0,347
0,0,0,0,0,530
1,0,0,0,0,492
2,0,0,0,0,496
3,0,0,0,0,551
4,0,0,0,0,437
5,0,0,0,0,319
6,0,0,0,0,742
7,0,0,0,0,551
8,0,0,0,0,987
9,0,0,0,0,852
10,0,0,0,0,475
11,0,0,0,0,521
12,0,0,0,0,816
13,0,0,0,0,572
14,0,0,0,0,716
15,0,0,0,0,294
0,0,0,0,0,525
1,0,0,0,0,523
2,0,0,0,0,606
3,0,0,0,0,444
4,0,0,0,0,510
5,0,0,0,0,918
6,0,0,0,0,556
7,0,0,0,0,618
8,0,0,0,0,504
9,0,0,0,0,413
10,0,0,0,0,1022
11,0,0,0,0,473
12,0,0,0,0,551
13,0,0,0,0,582
14,0,0,0,0,421
15,0,0,0,0,406
0,0,0,0,0,475
1,0,0,0,0,460
2,0,0,0,0,573
3,0,0,0,0,551
4,0,0,0,0,569
5,0,0,0,0,224
6,0,0,0,0,481
7,0,0,0,0,540
8,0,0,0,0,642
9,0,0,0,0,473
10,0,0,0,0,552
11,0,0,0,0,525
12,0,0,0,0,660
13,0,0,0,0,513
14,0,0,0,0,377
15,0,0,0,0,481
0,0,0,0,0,589
1,0,0,0,0,446
2,0,0,0,0,493
3,0,0,0,0,469
4,0,0,0,0,755
5,0,0,0,0,515
6,0,0,0,0,315
7,0,0,0,0,462
8,0,0,0,0,675
9,0,0,0,0,355
10,0,0,0,0,787
11,0,0,0,0,455
12,0,0,0,0,606
13,0,0,0,0,691
14,0,0,0,0,754
15,0,0,0,0,517
0,0,0,0,0,639
1,0,0,0,0,490
2,0,0,0,0,619
3,0,0,0,0,454
4,0,0,0,0,637
5,0,0,0,0,449
6,0,0,0,0,623
7,0,0,0,0,445
8,0,0,0,0,559
9,0,0,0,0,492
10,0,0,0,0,615
11,0,0,0,0,380
12,0,0,0,0,614
13,0,0,0,0,496
14,0,0,0,0,635
15,0,0,0,0,479
0,0,0,0,0,567
1,0,0,0,0,486
2,0,0,0,0,655
3,0,0,0,0,508
4,0,0,0,0,622
5,0,0,0,0,459
6,0,0,0,0,613
7,0,0,0,0,515
8,0,0,0,0,627
9,0,0,0,0,384
10,0,0,0,0,614
11,0,0,0,0,477
12,0,0,0,0,608
13,0,0,0,0,480
14,0,0,0,0,642
15,0,0,0,0,441
0,0,0,0,0,613
1,0,0,0,0,507
2,0,0,0,0,600
3,0,0,0,0,504
4,0,0,0,0,627
5,0,0,0,0,464
6,0,0,0,0,628
7,0,0,0,0,450
8,0,0,0,0,659
9,0,0,0,0,509
10,0,0,0,0,662
11,0,0,0,0,456
12,0,0,0,0,657
13,0,0,0,0,479
14,0,0,0,0,655
15,0,0,0,0,476
0,0,0,0,0,655
1,0,0,0,0,467
2,0,0,0,0,650
3,0,0,0,0,487
4,0,0,0,0,643
5,0,0,0,0,469
6,0,0,0,0,638
7,0,0,0,0,526
8,0,0,0,0,641
9,0,0,0,0,485
10,0,0,0,0,633
11,0,0,0,0,471
12,0,0,0,0,623
13,0,0,0,0,460
14,0,0,0,0,616
15,0,0,0,0,483
0,0,0,0,0,619
1,0,0,0,0,491
2,0,0,0,0,588
3,0,0,0,0,494
4,0,0,0,0,571
5,0,0,0,0,475
6,0,0,0,0,573
7,0,0,0,0,497
8,0,0,0,0,572
9,0,0,0,0,455
10,0,0,0,0,561
11,0,0,0,0,491
12,0,0,0,0,464
13,0,0,0,0,518
14,0,0,0,0,473
15,0,0,0,0,513
0,0,0,0,0,516
1,0,0,0,0,500
2,0,0,0,0,525
3,0,0,0,0,497
4,0,0,0,0,496
5,0,0,0,0,514
6,0,0,0,0,474
7,0,0,0,0,513
8,0,0,0,0,464
9,0,0,0,0,537
10,0,0,0,0,507
11,0,0,0,0,505
12,0,0,0,0,438
13,0,0,0,0,528
14,0,0,0,0,417
15,0,0,0,0,527
0,0,0,0,0,429
1,0,0,0,0,541
2,0,0,0,0,483
3,0,0,0,0,484
4,0,0,0,0,478
5,0,0,0,0,540
6,0,0,0,0,416
7,0,0,0,0,603
8,0,0,0,0,487
9,0,0,0,0,478
10,0,0,0,0,539
11,0,0,0,0,550
12,0,0,0,0,595
13,0,0,0,0,444
14,0,0,0,0,560
15,0,0,0,0,494
0,0,0,0,0,486
1,0,0,0,0,519
2,0,0,0,0,515
3,0,0,0,0,440
4,0,0,0,0,611
5,0,0,0,0,464
6,0,0,0,0,545
7,0,0,0,0,487
8,0,0,0,0,519
9,0,0,0,0,558
10,0,0,0,0,533
11,0,0,0,0,496
12,0,0,0,0,433
13,0,0,0,0,462
14,0,0,0,0,477
15,0,0,0,0,471
0,0,0,0,0,442
1,0,0,0,0,498
2,0,0,0,0,468
3,0,0,0,0,521
4,0,0,0,0,478
5,0,0,0,0,508
6,0,0,0,0,466
7,0,0,0,0,560
8,0,0,0,0,404
9,0,0,0,0,533
10,0,0,0,0,441
11,0,0,0,0,487
12,0,0,0,0,442
13,0,0,0,0,501
14,0,0,0,0,472
15,0,0,0,0,580
0,0,0,0,0,419
1,0,0,0,0,470
2,0,0,0,0,435
3,0,0,0,0,504
4,0,0,0,0,422
5,0,0,0,0,525
6,0,0,0,0,395
7,0,0,0,0,467
8,0,0,0,0,522
9,0,0,0,0,474
10,0,0,0,0,449
11,0,0,0,0,525
12,0,0,0,0,425
13,0,0,0,0,475
14,0,0,0,0,452
15,0,0,0,0,534
0,0,0,0,0,492
1,0,0,0,0,614
2,0,0,0,0,423
3,0,0,0,0,498
4,0,0,0,0,489
5,0,0,0,0,440
6,0,0,0,0,485
7,0,0,0,0,393
8,0,0,0,0,545
9,0,0,0,0,551
10,0,0,0,0,344
11,0,0,0,0,536
12,0,0,0,0,482
13,0,0,0,0,411
14,0,0,0,0,584
15,0,0,0,0,527
0,0,0,0,0,393
1,0,0,0,0,550
2,0,0,0,0,432
3,0,0,0,0,573
4,0,0,0,0,526
5,0,0,0,0,571
6,0,0,0,0,513
7,0,0,0,0,629
8,0,0,0,0,536
9,0,0,0,0,542
10,0,0,0,0,651
11,0,0,0,0,407
12,0,0,0,0,501
13,0,0,0,0,833
14,0,0,0,0,601
15,0,0,0,0,661
0,0,0,0,0,323
1,0,0,0,0,405
2,0,0,0,0,671
3,0,0,0,0,238
4,0,0,0,0,993
5,0,0,0,0,839
6,0,0,0,0,451
7,0,0,0,0,524
8,0,0,0,0,824
9,0,0,0,0,652
10,0,0,0,0,819
11,0,0,0,0,277
12,0,0,0,0,637
13,0,0,0,0,460
14,0,0,0,0,525
15,0,0,0,0,902
0,0,0,0,0,325
1,0,0,0,0,244
2,0,0,0,0,691
3,0,0,0,0,365
4,0,0,0,0,750
5,0,0,0,0,529
6,0,0,0,0,677
7,0,0,0,0,739
8,0,0,0,0,486
9,0,0,0,0,783
10,0,0,0,0,372
11,0,0,0,0,526
12,0,0,0,0,285
13,0,0,0,0,666
14,0,0,0,0,519
15,0,0,0,0,216
0,0,0,0,0,650
1,0,0,0,0,472
2,0,0,0,0,961
3,0,0,0,0,0
4,0,0,0,0,824
5,0,0,0,0,286
6,0,0,0,0,484
7,0,0,0,0,436
8,0,0,0,0,412
9,0,0,0,0,570
10,0,0,0,0,443
11,0,0,0,0,363
12,0,0,0,0,928
13,0,0,0,0,348
14,0,0,0,0,550
15,0,0,0,0,623
0,0,0,0,0,509
1,0,0,0,0,407
2,0,0,0,0,1022
3,0,0,0,0,280
4,0,0,0,0,470
5,0,0,0,0,551
6,0,0,0,0,572
7,0,0,0,0,564
8,0,0,0,0,502
9,0,0,0,0,368
10,0,0,0,0,1022
11,0,0,0,0,650
12,0,0,0,0,380
13,0,0,0,0,951
14,0,0,0,0,533
15,0,0,0,0,279
0,0,0,0,0,540
1,0,0,0,0,493
2,0,0,0,0,534
3,0,0,0,0,271
4,0,0,0,0,539
5,0,0,0,0,497
6,0,0,0,0,643
7,0,0,0,0,398
8,0,0,0,0,850
9,0,0,0,0,622
10,0,0,0,0,235
11,0,0,0,0,435
12,0,0,0,0,638
13,0,0,0,0,642
14,0,0,0,0,451
15,0,0,0,0,443
0,0,0,0,0,579
1,0,0,0,0,525
2,0,0,0,0,116
3,0,0,0,0,461
4,0,0,0,0,682
5,0,0,0,0,691
6,0,0,0,0,469
7,0,0,0,0,483
8,0,0,0,0,628
9,0,0,0,0,420
10,0,0,0,0,740
11,0,0,0,0,381
12,0,0,0,0,589
13,0,0,0,0,482
14,0,0,0,0,630
15,0,0,0,0,333
0,0,0,0,0,618
1,0,0,0,0,350
2,0,0,0,0,685
3,0,0,0,0,428
4,0,0,0,0,676
5,0,0,0,0,415
6,0,0,0,0,614
7,0,0,0,0,359
8,0,0,0,0,574
9,0,0,0,0,408
10,0,0,0,0,642
11,0,0,0,0,428
12,0,0,0,0,609
13,0,0,0,0,361
14,0,0,0,0,604
15,0,0,0,0,473
0,0,0,0,0,601
1,0,0,0,0,462
2,0,0,0,0,592
3,0,0,0,0,484
4,0,0,0,0,615
5,0,0,0,0,427
6,0,0,0,0,625
7,0,0,0,0,482
8,0,0,0,0,604
9,0,0,0,0,464
10,0,0,0,0,632
11,0,0,0,0,470
12,0,0,0,0,586
13,0,0,0,0,439
14,0,0,0,0,623
15,0,0,0,0,430
0,0,0,0,0,643
1,0,0,0,0,455
2,0,0,0,0,630
3,0,0,0,0,422
4,0,0,0,0,624
5,0,0,0,0,375
6,0,0,0,0,610
7,0,0,0,0,458
8,0,0,0,0,685
9,0,0,0,0,410
10,0,0,0,0,689
11,0,0,0,0,424
12,0,0,0,0,661
13,0,0,0,0,408
14,0,0,0,0,642
15,0,0,0,0,431
0,0,0,0,0,630
1,0,0,0,0,438
2,0,0,0,0,664
3,0,0,0,0,428
4,0,0,0,0,617
5,0,0,0,0,441
6,0,0,0,0,623
7,0,0,0,0,432
8,0,0,0,0,633
9,0,0,0,0,447
10,0,0,0,0,624
11,0,0,0,0,434
12,0,0,0,0,629
13,0,0,0,0,439
14,0,0,0,0,620
15,0,0,0,0,451
0,0,0,0,0,595
1,0,0,0,0,462
2,0,0,0,0,598
3,0,0,0,0,462
4,0,0,0,0,580
5,0,0,0,0,464
6,0,0,0,0,595
7,0,0,0,0,451
8,0,0,0,0,578
9,0,0,0,0,472
10,0,0,0,0,580
11,0,0,0,0,485
12,0,0,0,0,583
13,0,0,0,0,452
14,0,0,0,0,650
15,0,0,0,0,438
0,0,0,0,0,578
1,0,0,0,0,466
2,0,0,0,0,626
3,0,0,0,0,435
4,0,0,0,0,580
5,0,0,0,0,461
6,0,0,0,0,600
7,0,0,0,0,450
8,0,0,0,0,616
9,0,0,0,0,405
10,0,0,0,0,619
11,0,0,0,0,481
12,0,0,0,0,541
13,0,0,0,0,449
14,0,0,0,0,600
15,0,0,0,0,436
0,0,0,0,0,603
1,0,0,0,0,448
2,0,0,0,0,587
3,0,0,0,0,463
4,0,0,0,0,600
5,0,0,0,0,464
6,0,0,0,0,571
7,0,0,0,0,467
8,0,0,0,0,504
9,0,0,0,0,500
10,0,0,0,0,480
11,0,0,0,0,477
12,0,0,0,0,508
13,0,0,0,0,476
14,0,0,0,0,462
15,0,0,0,0,512
0,0,0,0,0,444
1,0,0,0,0,528
2,0,0,0,0,471
3,0,0,0,0,540
4,0,0,0,0,464
5,0,0,0,0,502
6,0,0,0,0,473
7,0,0,0,0,437
8,0,0,0,0,523
9,0,0,0,0,439
10,0,0,0,0,527
11,0,0,0,0,474
12,0,0,0,0,579
13,0,0,0,0,426
14,0,0,0,0,706
15,0,0,0,0,379
0,0,0,0,0,517
1,0,0,0,0,452
2,0,0,0,0,499
3,0,0,0,0,471
4,0,0,0,0,620
5,0,0,0,0,502
6,0,0,0,0,591
7,0,0,0,0,576
8,0,0,0,0,492
9,0,0,0,0,511
10,0,0,0,0,485
11,0,0,0,0,474
12,0,0,0,0,514
13,0,0,0,0,550
14,0,0,0,0,585
15,0,0,0,0,528
0,0,0,0,0,349
1,0,0,0,0,596
2,0,0,0,0,551
3,0,0,0,0,524
4,0,0,0,0,534
5,0,0,0,0,523
6,0,0,0,0,496
7,0,0,0,0,482
8,0,0,0,0,472
9,0,0,0,0,534
10,0,0,0,0,418
11,0,0,0,0,564
12,0,0,0,0,497
13,0,0,0,0,655
14,0,0,0,0,314
15,0,0,0,0,654
0,0,0,0,0,364
1,0,0,0,0,388
2,0,0,0,0,561
3,0,0,0,0,271
4,0,0,0,0,684
5,0,0,0,0,404
6,0,0,0,0,334
7,0,0,0,0,635
8,0,0,0,0,564
9,0,0,0,0,372
10,0,0,0,0,521
11,0,0,0,0,507
12,0,0,0,0,495
13,0,0,0,0,415
14,0,0,0,0,487
15,0,0,0,0,723
0,0,0,0,0,532
1,0,0,0,0,548
2,0,0,0,0,446
3,0,0,0,0,471
4,0,0,0,0,504
5,0,0,0,0,238
6,0,0,0,0,725
7,0,0,0,0,362
8,0,0,0,0,580
9,0,0,0,0,355
10,0,0,0,0,800
11,0,0,0,0,325
12,0,0,0,0,425
13,0,0,0,0,755
14,0,0,0,0,441
15,0,0,0,0,254
0,0,0,0,0,625
1,0,0,0,0,536
2,0,0,0,0,935
3,0,0,0,0,79
4,0,0,0,0,1022
5,0,0,0,0,374
6,0,0,0,0,1022
7,0,0,0,0,348
8,0,0,0,0,524
9,0,0,0,0,93
10,0,0,0,0,574
11,0,0,0,0,312
12,0,0,0,0,817
13,0,0,0,0,436
14,0,0,0,0,846
15,0,0,0,0,503
0,0,0,0,0,619
1,0,0,0,0,465
2,0,0,0,0,603
3,0,0,0,0,455
4,0,0,0,0,529
5,0,0,0,0,0
6,0,0,0,0,458
7,0,0,0,0,677
8,0,0,0,0,860
9,0,0,0,0,233
10,0,0,0,0,537
11,0,0,0,0,1000
12,0,0,0,0,533
13,0,0,0,0,434
14,0,0,0,0,639
15,0,0,0,0,594
0,0,0,0,0,488
1,0,0,0,0,385
2,0,0,0,0,387
3,0,0,0,0,428
4,0,0,0,0,594
5,0,0,0,0,371
6,0,0,0,0,495
7,0,0,0,0,566
8,0,0,0,0,967
9,0,0,0,0,355
10,0,0,0,0,552
11,0,0,0,0,357
12,0,0,0,0,551
13,0,0,0,0,291
14,0,0,0,0,611
15,0,0,0,0,492
0,0,0,0,0,539
1,0,0,0,0,303
2,0,0,0,0,548
3,0,0,0,0,596
4,0,0,0,0,588
5,0,0,0,0,454
6,0,0,0,0,472
7,0,0,0,0,481
8,0,0,0,0,571
9,0,0,0,0,415
10,0,0,0,0,611
11,0,0,0,0,425
12,0,0,0,0,511
13,0,0,0,0,422
14,0,0,0,0,586
15,0,0,0,0,474
0,0,0,0,0,621
1,0,0,0,0,384
2,0,0,0,0,543
3,0,0,0,0,458
4,0,0,0,0,573
5,0,0,0,0,474
6,0,0,0,0,585
7,0,0,0,0,386
8,0,0,0,0,615
9,0,0,0,0,423
10,0,0,0,0,557
11,0,0,0,0,420
12,0,0,0,0,556
13,0,0,0,0,476
14,0,0,0,0,558
15,0,0,0,0,455
0,0,0,0,0,542
1,0,0,0,0,442
2,0,0,0,0,575
3,0,0,0,0,409
4,0,0,0,0,575
5,0,0,0,0,433
6,0,0,0,0,557
7,0,0,0,0,399
8,0,0,0,0,565
9,0,0,0,0,452
10,0,0,0,0,583
11,0,0,0,0,442
12,0,0,0,0,583
13,0,0,0,0,408
14,0,0,0,0,587
15,0,0,0,0,403
0,0,0,0,0,599
1,0,0,0,0,421
2,0,0,0,0,555
3,0,0,0,0,402
4,0,0,0,0,571
5,0,0,0,0,420
6,0,0,0,0,563
7,0,0,0,0,398
8,0,0,0,0,601
9,0,0,0,0,426
10,0,0,0,0,587
11,0,0,0,0,412
12,0,0,0,0,575
13,0,0,0,0,423
14,0,0,0,0,586
15,0,0,0,0,433
0,0,0,0,0,602
1,0,0,0,0,434
2,0,0,0,0,549
3,0,0,0,0,415
4,0,0,0,0,568
5,0,0,0,0,439
6,0,0,0,0,569
7,0,0,0,0,423
8,0,0,0,0,556
9,0,0,0,0,446
10,0,0,0,0,569
11,0,0,0,0,443
12,0,0,0,0,536
13,0,0,0,0,458
14,0,0,0,0,548
15,0,0,0,0,460
0,0,0,0,0,569
1,0,0,0,0,403
2,0,0,0,0,566
3,0,0,0,0,476
4,0,0,0,0,553
5,0,0,0,0,446
6,0,0,0,0,592
7,0,0,0,0,428
8,0,0,0,0,569
9,0,0,0,0,439
10,0,0,0,0,555
11,0,0,0,0,487
12,0,0,0,0,531
13,0,0,0,0,448
14,0,0,0,0,547
15,0,0,0,0,463
0,0,0,0,0,536
1,0,0,0,0,446
2,0,0,0,0,544
3,0,0,0,0,483
4,0,0,0,0,464
5,0,0,0,0,519
6,0,0,0,0,506
7,0,0,0,0,445
8,0,0,0,0,558
9,0,0,0,0,416
10,0,0,0,0,515
11,0,0,0,0,481
12,0,0,0,0,518
13,0,0,0,0,418
14,0,0,0,0,527
15,0,0,0,0,450
0,0,0,0,0,569
1,0,0,0,0,345
2,0,0,0,0,623
3,0,0,0,0,394
4,0,0,0,0,517
5,0,0,0,0,453
6,0,0,0,0,494
7,0,0,0,0,458
8,0,0,0,0,506
9,0,0,0,0,523
10,0,0,0,0,598
11,0,0,0,0,435
12,0,0,0,0,497
13,0,0,0,0,489
14,0,0,0,0,502
15,0,0,0,0,484
0,0,0,0,0,525
1,0,0,0,0,477
2,0,0,0,0,494
3,0,0,0,0,535
4,0,0,0,0,519
5,0,0,0,0,454
6,0,0,0,0,485
7,0,0,0,0,485
8,0,0,0,0,510
9,0,0,0,0,467
10,0,0,0,0,530
11,0,0,0,0,482
12,0,0,0,0,494
13,0,0,0,0,442
14,0,0,0,0,573
15,0,0,0,0,428
0,0,0,0,0,528
1,0,0,0,0,447
2,0,0,0,0,550
3,0,0,0,0,419
4,0,0,0,0,495
5,0,0,0,0,502
6,0,0,0,0,439
7,0,0,0,0,446
8,0,0,0,0,536
9,0,0,0,0,496
10,0,0,0,0,479
11,0,0,0,0,509
12,0,0,0,0,522
13,0,0,0,0,503
14,0,0,0,0,519
15,0,0,0,0,474
0,0,0,0,0,499
1,0,0,0,0,543
2,0,0,0,0,459
3,0,0,0,0,510
4,0,0,0,0,528
5,0,0,0,0,481
6,0,0,0,0,489
7,0,0,0,0,422
8,0,0,0,0,455
9,0,0,0,0,477
10,0,0,0,0,486
11,0,0,0,0,518
12,0,0,0,0,449
13,0,0,0,0,537
14,0,0,0,0,514
15,0,0,0,0,506
0,0,0,0,0,416
1,0,0,0,0,506
2,0,0,0,0,496
3,0,0,0,0,526
4,0,0,0,0,422
5,0,0,0,0,515
6,0,0,0,0,443
7,0,0,0,0,519
8,0,0,0,0,448
9,0,0,0,0,518
10,0,0,0,0,449
11,0,0,0,0,500
12,0,0,0,0,473
13,0,0,0,0,480
14,0,0,0,0,483
15,0,0,0,0,451
0,0,0,0,0,499
1,0,0,0,0,423
2,0,0,0,0,539
3,0,0,0,0,405
4,0,0,0,0,507
5,0,0,0,0,406
6,0,0,0,0,544
7,0,0,0,0,317
8,0,0,0,0,605
9,0,0,0,0,271
10,0,0,0,0,609
11,0,0,0,0,275
12,0,0,0,0,611
13,0,0,0,0,250
14,0,0,0,0,606
15,0,0,0,0,253
0,0,0,0,0,634
1,0,0,0,0,163
2,0,0,0,0,829
3,0,0,0,0,0
4,0,0,0,0,931
5,0,0,0,0,0
6,0,0,0,0,816
7,0,0,0,0,123
8,0,0,0,0,720
9,0,0,0,0,177
10,0,0,0,0,695
11,0,0,0,0,242
12,0,0,0,0,658
13,0,0,0,0,277
14,0,0,0,0,644
15,0,0,0,0,336
0,0,0,0,0,587
1,0,0,0,0,379
2,0,0,0,0,567
3,0,0,0,0,441
4,0,0,0,0,500
5,0,0,0,0,508
6,0,0,0,0,494
7,0,0,0,0,604
8,0,0,0,0,272
9,0,0,0,0,829
10,0,0,0,0,261
11,0,0,0,0,746
12,0,0,0,0,365
13,0,0,0,0,599
14,0,0,0,0,556
15,0,0,0,0,408
0,0,0,0,0,625
1,0,0,0,0,383
2,0,0,0,0,626
3,0,0,0,0,359
4,0,0,0,0,628
5,0,0,0,0,375
6,0,0,0,0,609
7,0,0,0,0,398
8,0,0,0,0,604
9,0,0,0,0,404
10,0,0,0,0,591
11,0,0,0,0,389
12,0,0,0,0,597
13,0,0,0,0,414
14,0,0,0,0,588
15,0,0,0,0,423
0,0,0,0,0,567
1,0,0,0,0,434
2,0,0,0,0,559
3,0,0,0,0,458
4,0,0,0,0,553
5,0,0,0,0,452
6,0,0,0,0,522
7,0,0,0,0,464
8,0,0,0,0,527
9,0,0,0,0,448
10,0,0,0,0,520
11,0,0,0,0,456
12,0,0,0,0,505
13,0,0,0,0,521
14,0,0,0,0,487
15,0,0,0,0,475
0,0,0,0,0,493
1,0,0,0,0,486
2,0,0,0,0,513
3,0,0,0,0,471
4,0,0,0,0,513
5,0,0,0,0,493
6,0,0,0,0,528
7,0,0,0,0,486
8,0,0,0,0,518
9,0,0,0,0,481
10,0,0,0,0,526
11,0,0,0,0,484
12,0,0,0,0,536
13,0,0,0,0,461
14,0,0,0,0,526
15,0,0,0,0,486
0,0,0,0,0,527
1,0,0,0,0,471
2,0,0,0,0,525
3,0,0,0,0,478
4,0,0,0,0,533
5,0,0,0,0,479
6,0,0,0,0,542
7,0,0,0,0,491
8,0,0,0,0,510
9,0,0,0,0,489
10,0,0,0,0,522
11,0,0,0,0,483
12,0,0,0,0,510
13,0,0,0,0,465
14,0,0,0,0,520
15,0,0,0,0,479
0,0,0,0,0,519
1,0,0,0,0,476
2,0,0,0,0,527
