# OpenSignals Text File Format. Version 1
# {"84:BA:20:5E:FB:98": {"position": 0, "device": "bitalino_rev", "device name": "84:BA:20:5E:FB:98", "device connection": "BTH84:BA:20:5E:FB:98", "sampling rate": 100, "resolution": [4, 1, 1, 1, 1, 10], "firmware version": 1282, "comments": "", "keywords": "", "mode": 0, "sync interval": 2, "date": "2024-3-4", "time": "19:33:57.913", "channels": [1], "sensor": ["EMGBITREV"], "label": ["A1"], "column": ["nSeq", "I1", "I2", "O1", "O2", "A1"], "special": [{}], "digital IO": [0, 0, 1, 1]}}
# EndOfHeader
0	0	0	0	0	568	
1	0	0	0	0	499	
2	0	0	0	0	527	
3	0	0	0	0	500	
4	0	0	0	0	541	
5	0	0	0	0	490	
6	0	0	0	0	546	
7	0	0	0	0	492	
8	0	0	0	0	558	
9	0	0	0	0	492	
10	0	0	0	0	500	
11	0	0	0	0	531	
12	0	0	0	0	522	
13	0	0	0	0	487	
14	0	0	0	0	517	
15	0	0	0	0	492	
0	0	0	0	0	574	
1	0	0	0	0	497	
2	0	0	0	0	545	
3	0	0	0	0	502	
4	0	0	0	0	513	
5	0	0	0	0	509	
6	0	0	0	0	490	
7	0	0	0	0	504	
8	0	0	0	0	551	
9	0	0	0	0	460	
10	0	0	0	0	538	
11	0	0	0	0	496	
12	0	0	0	0	560	
13	0	0	0	0	503	
14	0	0	0	0	566	
15	0	0	0	0	455	
0	0	0	0	0	558	
1	0	0	0	0	498	
2	0	0	0	0	549	
3	0	0	0	0	487	
4	0	0	0	0	557	
5	0	0	0	0	498	
6	0	0	0	0	554	
7	0	0	0	0	487	
8	0	0	0	0	531	
9	0	0	0	0	493	
10	0	0	0	0	558	
11	0	0	0	0	486	
12	0	0	0	0	548	
13	0	0	0	0	504	
14	0	0	0	0	543	
15	0	0	0	0	458	
0	0	0	0	0	557	
1	0	0	0	0	499	
2	0	0	0	0	545	
3	0	0	0	0	495	
4	0	0	0	0	531	
5	0	0	0	0	472	
6	0	0	0	0	547	
7	0	0	0	0	490	
8	0	0	0	0	556	
9	0	0	0	0	492	
10	0	0	0	0	566	
11	0	0	0	0	506	
12	0	0	0	0	534	
13	0	0	0	0	499	
14	0	0	0	0	528	
15	0	0	0	0	494	
0	0	0	0	0	558	
1	0	0	0	0	505	
2	0	0	0	0	525	
3	0	0	0	0	492	
4	0	0	0	0	551	
5	0	0	0	0	501	
6	0	0	0	0	542	
7	0	0	0	0	511	
8	0	0	0	0	518	
9	0	0	0	0	498	
10	0	0	0	0	545	
11	0	0	0	0	508	
12	0	0	0	0	533	
13	0	0	0	0	491	
14	0	0	0	0	537	
15	0	0	0	0	501	
0	0	0	0	0	521	
1	0	0	0	0	464	
2	0	0	0	0	550	
3	0	0	0	0	487	
4	0	0	0	0	518	
5	0	0	0	0	493	
6	0	0	0	0	549	
7	0	0	0	0	495	
8	0	0	0	0	532	
9	0	0	0	0	504	
10	0	0	0	0	560	
11	0	0	0	0	478	
12	0	0	0	0	539	
13	0	0	0	0	493	
14	0	0	0	0	557	
15	0	0	0	0	502	
0	0	0	0	0	536	
1	0	0	0	0	460	
2	0	0	0	0	556	
3	0	0	0	0	485	
4	0	0	0	0	550	
5	0	0	0	0	489	
6	0	0	0	0	566	
7	0	0	0	0	488	
8	0	0	0	0	555	
9	0	0	0	0	470	
10	0	0	0	0	524	
11	0	0	0	0	509	
12	0	0	0	0	563	
13	0	0	0	0	493	
14	0	0	0	0	558	
15	0	0	0	0	486	
0	0	0	0	0	544	
1	0	0	0	0	449	
2	0	0	0	0	561	
3	0	0	0	0	491	
4	0	0	0	0	526	
5	0	0	0	0	484	
6	0	0	0	0	544	
7	0	0	0	0	498	
8	0	0	0	0	551	
9	0	0	0	0	464	
10	0	0	0	0	564	
11	0	0	0	0	465	
12	0	0	0	0	556	
13	0	0	0	0	490	
14	0	0	0	0	559	
15	0	0	0	0	463	
0	0	0	0	0	548	
1	0	0	0	0	471	
2	0	0	0	0	534	
3	0	0	0	0	493	
4	0	0	0	0	550	
5	0	0	0	0	499	
6	0	0	0	0	537	
7	0	0	0	0	460	
8	0	0	0	0	564	
9	0	0	0	0	501	
10	0	0	0	0	508	
11	0	0	0	0	513	
12	0	0	0	0	509	
13	0	0	0	0	474	
14	0	0	0	0	533	
15	0	0	0	0	449	
0	0	0	0	0	462	
1	0	0	0	0	492	
2	0	0	0	0	605	
3	0	0	0	0	461	
4	0	0	0	0	528	
5	0	0	0	0	490	
6	0	0	0	0	550	
7	0	0	0	0	489	
8	0	0	0	0	537	
9	0	0	0	0	461	
10	0	0	0	0	540	
11	0	0	0	0	494	
12	0	0	0	0	559	
13	0	0	0	0	489	
14	0	0	0	0	465	
15	0	0	0	0	493	
0	0	0	0	0	536	
1	0	0	0	0	481	
2	0	0	0	0	562	
3	0	0	0	0	483	
4	0	0	0	0	498	
5	0	0	0	0	460	
6	0	0	0	0	545	
7	0	0	0	0	510	
8	0	0	0	0	591	
9	0	0	0	0	473	
10	0	0	0	0	547	
11	0	0	0	0	468	
12	0	0	0	0	536	
13	0	0	0	0	477	
14	0	0	0	0	488	
15	0	0	0	0	401	
0	0	0	0	0	616	
1	0	0	0	0	515	
2	0	0	0	0	521	
3	0	0	0	0	507	
4	0	0	0	0	541	
5	0	0	0	0	490	
6	0	0	0	0	541	
7	0	0	0	0	504	
8	0	0	0	0	538	
9	0	0	0	0	459	
10	0	0	0	0	595	
11	0	0	0	0	534	
12	0	0	0	0	519	
13	0	0	0	0	466	
14	0	0	0	0	537	
15	0	0	0	0	483	
0	0	0	0	0	542	
1	0	0	0	0	477	
2	0	0	0	0	467	
3	0	0	0	0	471	
4	0	0	0	0	487	
5	0	0	0	0	475	
6	0	0	0	0	551	
7	0	0	0	0	479	
8	0	0	0	0	522	
9	0	0	0	0	511	
10	0	0	0	0	574	
11	0	0	0	0	464	
12	0	0	0	0	539	
13	0	0	0	0	484	
14	0	0	0	0	519	
15	0	0	0	0	513	
0	0	0	0	0	551	
1	0	0	0	0	476	
2	0	0	0	0	539	
3	0	0	0	0	421	
4	0	0	0	0	525	
5	0	0	0	0	435	
6	0	0	0	0	550	
7	0	0	0	0	458	
8	0	0	0	0	513	
9	0	0	0	0	493	
10	0	0	0	0	511	
11	0	0	0	0	504	
12	0	0	0	0	539	
13	0	0	0	0	440	
14	0	0	0	0	572	
15	0	0	0	0	479	
0	0	0	0	0	519	
1	0	0	0	0	523	
2	0	0	0	0	443	
3	0	0	0	0	581	
4	0	0	0	0	499	
5	0	0	0	0	486	
6	0	0	0	0	543	
7	0	0	0	0	440	
8	0	0	0	0	588	
9	0	0	0	0	487	
10	0	0	0	0	505	
11	0	0	0	0	546	
12	0	0	0	0	599	
13	0	0	0	0	474	
14	0	0	0	0	473	
15	0	0	0	0	550	
0	0	0	0	0	499	
1	0	0	0	0	461	
2	0	0	0	0	514	
3	0	0	0	0	506	
4	0	0	0	0	571	
5	0	0	0	0	470	
6	0	0	0	0	556	
7	0	0	0	0	479	
8	0	0	0	0	531	
9	0	0	0	0	486	
10	0	0	0	0	506	
11	0	0	0	0	471	
12	0	0	0	0	548	
13	0	0	0	0	514	
14	0	0	0	0	512	
15	0	0	0	0	523	
0	0	0	0	0	481	
1	0	0	0	0	512	
2	0	0	0	0	559	
3	0	0	0	0	485	
4	0	0	0	0	547	
5	0	0	0	0	473	
6	0	0	0	0	627	
7	0	0	0	0	463	
8	0	0	0	0	551	
9	0	0	0	0	403	
10	0	0	0	0	525	
11	0	0	0	0	469	
12	0	0	0	0	532	
13	0	0	0	0	536	
14	0	0	0	0	476	
15	0	0	0	0	547	
0	0	0	0	0	501	
1	0	0	0	0	470	
2	0	0	0	0	571	
3	0	0	0	0	433	
4	0	0	0	0	535	
5	0	0	0	0	463	
6	0	0	0	0	602	
7	0	0	0	0	465	
8	0	0	0	0	521	
9	0	0	0	0	465	
10	0	0	0	0	558	
11	0	0	0	0	470	
12	0	0	0	0	540	
13	0	0	0	0	463	
14	0	0	0	0	520	
15	0	0	0	0	407	
0	0	0	0	0	540	
1	0	0	0	0	502	
2	0	0	0	0	629	
3	0	0	0	0	464	
4	0	0	0	0	561	
5	0	0	0	0	489	
6	0	0	0	0	484	
7	0	0	0	0	475	
8	0	0	0	0	562	
9	0	0	0	0	563	
10	0	0	0	0	527	
11	0	0	0	0	512	
12	0	0	0	0	516	
13	0	0	0	0	430	
14	0	0	0	0	524	
15	0	0	0	0	353	
0	0	0	0	0	519	
1	0	0	0	0	487	
2	0	0	0	0	523	
3	0	0	0	0	424	
4	0	0	0	0	513	
5	0	0	0	0	466	
6	0	0	0	0	534	
7	0	0	0	0	411	
8	0	0	0	0	471	
9	0	0	0	0	521	
10	0	0	0	0	513	
11	0	0	0	0	427	
12	0	0	0	0	492	
13	0	0	0	0	489	
14	0	0	0	0	614	
15	0	0	0	0	408	
0	0	0	0	0	559	
1	0	0	0	0	486	
2	0	0	0	0	508	
3	0	0	0	0	482	
4	0	0	0	0	644	
5	0	0	0	0	463	
6	0	0	0	0	534	
7	0	0	0	0	488	
8	0	0	0	0	524	
9	0	0	0	0	490	
10	0	0	0	0	496	
11	0	0	0	0	454	
12	0	0	0	0	575	
13	0	0	0	0	470	
14	0	0	0	0	597	
15	0	0	0	0	495	
0	0	0	0	0	536	
1	0	0	0	0	517	
2	0	0	0	0	500	
3	0	0	0	0	459	
4	0	0	0	0	577	
5	0	0	0	0	604	
6	0	0	0	0	516	
7	0	0	0	0	479	
8	0	0	0	0	476	
9	0	0	0	0	423	
10	0	0	0	0	515	
11	0	0	0	0	506	
12	0	0	0	0	448	
13	0	0	0	0	548	
14	0	0	0	0	547	
15	0	0	0	0	479	
0	0	0	0	0	533	
1	0	0	0	0	483	
2	0	0	0	0	498	
3	0	0	0	0	482	
4	0	0	0	0	487	
5	0	0	0	0	478	
6	0	0	0	0	501	
7	0	0	0	0	426	
8	0	0	0	0	551	
9	0	0	0	0	471	
10	0	0	0	0	540	
11	0	0	0	0	494	
12	0	0	0	0	555	
13	0	0	0	0	475	
14	0	0	0	0	469	
15	0	0	0	0	496	
0	0	0	0	0	486	
1	0	0	0	0	486	
2	0	0	0	0	535	
3	0	0	0	0	495	
4	0	0	0	0	519	
5	0	0	0	0	512	
6	0	0	0	0	465	
7	0	0	0	0	445	
8	0	0	0	0	591	
9	0	0	0	0	407	
10	0	0	0	0	523	
11	0	0	0	0	456	
12	0	0	0	0	524	
13	0	0	0	0	472	
14	0	0	0	0	537	
15	0	0	0	0	415	
0	0	0	0	0	530	
1	0	0	0	0	515	
2	0	0	0	0	527	
3	0	0	0	0	464	
4	0	0	0	0	529	
5	0	0	0	0	522	
6	0	0	0	0	532	
7	0	0	0	0	498	
8	0	0	0	0	535	
9	0	0	0	0	440	
10	0	0	0	0	512	
11	0	0	0	0	515	
12	0	0	0	0	492	
13	0	0	0	0	399	
14	0	0	0	0	464	
15	0	0	0	0	482	
0	0	0	0	0	523	
1	0	0	0	0	478	
2	0	0	0	0	507	
3	0	0	0	0	506	
4	0	0	0	0	507	
5	0	0	0	0	482	
6	0	0	0	0	507	
7	0	0	0	0	478	
8	0	0	0	0	518	
9	0	0	0	0	505	
10	0	0	0	0	515	
11	0	0	0	0	471	
12	0	0	0	0	528	
13	0	0	0	0	403	
14	0	0	0	0	596	
15	0	0	0	0	472	
0	0	0	0	0	527	
1	0	0	0	0	475	
2	0	0	0	0	525	
3	0	0	0	0	478	
4	0	0	0	0	500	
5	0	0	0	0	476	
6	0	0	0	0	517	
7	0	0	0	0	469	
8	0	0	0	0	501	
9	0	0	0	0	466	
10	0	0	0	0	549	
11	0	0	0	0	455	
12	0	0	0	0	519	
13	0	0	0	0	473	
14	0	0	0	0	542	
15	0	0	0	0	481	
0	0	0	0	0	511	
1	0	0	0	0	515	
2	0	0	0	0	501	
3	0	0	0	0	448	
4	0	0	0	0	490	
5	0	0	0	0	478	
6	0	0	0	0	531	
7	0	0	0	0	507	
8	0	0	0	0	544	
9	0	0	0	0	522	
10	0	0	0	0	550	
11	0	0	0	0	491	
12	0	0	0	0	495	
13	0	0	0	0	492	
14	0	0	0	0	515	
15	0	0	0	0	480	
0	0	0	0	0	540	
1	0	0	0	0	455	
2	0	0	0	0	549	
3	0	0	0	0	461	
4	0	0	0	0	417	
5	0	0	0	0	504	
6	0	0	0	0	495	
7	0	0	0	0	477	
8	0	0	0	0	521	
9	0	0	0	0	461	
10	0	0	0	0	548	
11	0	0	0	0	473	
12	0	0	0	0	534	
13	0	0	0	0	481	
14	0	0	0	0	555	
15	0	0	0	0	467	
0	0	0	0	0	475	
1	0	0	0	0	486	
2	0	0	0	0	496	
3	0	0	0	0	474	
4	0	0	0	0	478	
5	0	0	0	0	457	
6	0	0	0	0	558	
7	0	0	0	0	478	
8	0	0	0	0	510	
9	0	0	0	0	480	
10	0	0	0	0	530	
11	0	0	0	0	505	
12	0	0	0	0	489	
13	0	0	0	0	503	
14	0	0	0	0	508	
15	0	0	0	0	486	
0	0	0	0	0	505	
1	0	0	0	0	460	
2	0	0	0	0	521	
3	0	0	0	0	495	
4	0	0	0	0	561	
5	0	0	0	0	435	
6	0	0	0	0	494	
7	0	0	0	0	522	
8	0	0	0	0	435	
9	0	0	0	0	574	
10	0	0	0	0	469	
11	0	0	0	0	497	
12	0	0	0	0	484	
13	0	0	0	0	483	
14	0	0	0	0	571	
15	0	0	0	0	374	
0	0	0	0	0	628	
1	0	0	0	0	486	
2	0	0	0	0	477	
3	0	0	0	0	489	
4	0	0	0	0	434	
5	0	0	0	0	546	
6	0	0	0	0	361	
7	0	0	0	0	462	
8	0	0	0	0	587	
9	0	0	0	0	488	
10	0	0	0	0	582	
11	0	0	0	0	424	
12	0	0	0	0	524	
13	0	0	0	0	452	
14	0	0	0	0	527	
15	0	0	0	0	463	
0	0	0	0	0	546	
1	0	0	0	0	421	
2	0	0	0	0	588	
3	0	0	0	0	480	
4	0	0	0	0	533	
5	0	0	0	0	529	
6	0	0	0	0	523	
7	0	0	0	0	520	
8	0	0	0	0	548	
9	0	0	0	0	465	
10	0	0	0	0	552	
11	0	0	0	0	492	
12	0	0	0	0	497	
13	0	0	0	0	439	
14	0	0	0	0	480	
15	0	0	0	0	386	
0	0	0	0	0	607	
1	0	0	0	0	391	
2	0	0	0	0	455	
3	0	0	0	0	544	
4	0	0	0	0	444	
5	0	0	0	0	551	
6	0	0	0	0	433	
7	0	0	0	0	487	
8	0	0	0	0	603	
9	0	0	0	0	459	
10	0	0	0	0	510	
11	0	0	0	0	562	
12	0	0	0	0	513	
13	0	0	0	0	534	
14	0	0	0	0	570	
15	0	0	0	0	450	
0	0	0	0	0	598	
1	0	0	0	0	495	
2	0	0	0	0	494	
3	0	0	0	0	440	
4	0	0	0	0	511	
5	0	0	0	0	425	
6	0	0	0	0	419	
7	0	0	0	0	486	
8	0	0	0	0	547	
9	0	0	0	0	474	
10	0	0	0	0	550	
11	0	0	0	0	477	
12	0	0	0	0	542	
13	0	0	0	0	449	
14	0	0	0	0	496	
15	0	0	0	0	585	
0	0	0	0	0	545	
1	0	0	0	0	551	
2	0	0	0	0	478	
3	0	0	0	0	477	
4	0	0	0	0	498	
5	0	0	0	0	571	
6	0	0	0	0	578	
7	0	0	0	0	443	
8	0	0	0	0	491	
9	0	0	0	0	454	
10	0	0	0	0	504	
11	0	0	0	0	597	
12	0	0	0	0	554	
13	0	0	0	0	568	
14	0	0	0	0	516	
15	0	0	0	0	526	
0	0	0	0	0	408	
1	0	0	0	0	467	
2	0	0	0	0	444	
3	0	0	0	0	507	
4	0	0	0	0	506	
5	0	0	0	0	479	
6	0	0	0	0	502	
7	0	0	0	0	470	
8	0	0	0	0	458	
9	0	0	0	0	534	
10	0	0	0	0	606	
11	0	0	0	0	470	
12	0	0	0	0	435	
13	0	0	0	0	502	
14	0	0	0	0	333	
15	0	0	0	0	457	
0	0	0	0	0	555	
1	0	0	0	0	505	
2	0	0	0	0	671	
3	0	0	0	0	531	
4	0	0	0	0	514	
5	0	0	0	0	526	
6	0	0	0	0	396	
7	0	0	0	0	508	
8	0	0	0	0	532	
9	0	0	0	0	553	
10	0	0	0	0	431	
11	0	0	0	0	763	
12	0	0	0	0	556	
13	0	0	0	0	515	
14	0	0	0	0	752	
15	0	0	0	0	228	
0	0	0	0	0	570	
1	0	0	0	0	544	
2	0	0	0	0	485	
3	0	0	0	0	403	
4	0	0	0	0	593	
5	0	0	0	0	559	
6	0	0	0	0	508	
7	0	0	0	0	436	
8	0	0	0	0	650	
9	0	0	0	0	477	
10	0	0	0	0	607	
11	0	0	0	0	481	
12	0	0	0	0	669	
13	0	0	0	0	504	
14	0	0	0	0	596	
15	0	0	0	0	55	
0	0	0	0	0	467	
1	0	0	0	0	585	
2	0	0	0	0	671	
3	0	0	0	0	478	
4	0	0	0	0	312	
5	0	0	0	0	529	
6	0	0	0	0	259	
7	0	0	0	0	467	
8	0	0	0	0	629	
9	0	0	0	0	541	
10	0	0	0	0	446	
11	0	0	0	0	568	
12	0	0	0	0	546	
13	0	0	0	0	440	
14	0	0	0	0	299	
15	0	0	0	0	167	
0	0	0	0	0	189	
1	0	0	0	0	397	
2	0	0	0	0	499	
3	0	0	0	0	444	
4	0	0	0	0	424	
5	0	0	0	0	354	
6	0	0	0	0	600	
7	0	0	0	0	405	
8	0	0	0	0	588	
9	0	0	0	0	438	
10	0	0	0	0	420	
11	0	0	0	0	473	
12	0	0	0	0	534	
13	0	0	0	0	524	
14	0	0	0	0	548	
15	0	0	0	0	415	
0	0	0	0	0	540	
1	0	0	0	0	391	
2	0	0	0	0	560	
3	0	0	0	0	463	
4	0	0	0	0	519	
5	0	0	0	0	496	
6	0	0	0	0	536	
7	0	0	0	0	481	
8	0	0	0	0	582	
9	0	0	0	0	425	
10	0	0	0	0	469	
11	0	0	0	0	458	
12	0	0	0	0	561	
13	0	0	0	0	488	
14	0	0	0	0	521	
15	0	0	0	0	473	
0	0	0	0	0	512	
1	0	0	0	0	420	
2	0	0	0	0	494	
3	0	0	0	0	371	
4	0	0	0	0	527	
5	0	0	0	0	402	
6	0	0	0	0	519	
7	0	0	0	0	412	
8	0	0	0	0	512	
9	0	0	0	0	467	
10	0	0	0	0	530	
11	0	0	0	0	464	
12	0	0	0	0	508	
13	0	0	0	0	455	
14	0	0	0	0	435	
15	0	0	0	0	473	
0	0	0	0	0	480	
1	0	0	0	0	475	
2	0	0	0	0	454	
3	0	0	0	0	474	
4	0	0	0	0	521	
5	0	0	0	0	428	
6	0	0	0	0	519	
7	0	0	0	0	432	
8	0	0	0	0	480	
9	0	0	0	0	434	
10	0	0	0	0	499	
11	0	0	0	0	473	
12	0	0	0	0	503	
13	0	0	0	0	470	
14	0	0	0	0	511	
15	0	0	0	0	463	
0	0	0	0	0	530	
1	0	0	0	0	455	
2	0	0	0	0	511	
3	0	0	0	0	432	
4	0	0	0	0	522	
5	0	0	0	0	468	
6	0	0	0	0	516	
7	0	0	0	0	457	
8	0	0	0	0	506	
9	0	0	0	0	474	
10	0	0	0	0	519	
11	0	0	0	0	523	
12	0	0	0	0	469	
13	0	0	0	0	489	
14	0	0	0	0	492	
15	0	0	0	0	487	
0	0	0	0	0	518	
1	0	0	0	0	401	
2	0	0	0	0	555	
3	0	0	0	0	440	
4	0	0	0	0	508	
5	0	0	0	0	485	
6	0	0	0	0	555	
7	0	0	0	0	458	
8	0	0	0	0	494	
9	0	0	0	0	423	
10	0	0	0	0	614	
11	0	0	0	0	432	
12	0	0	0	0	543	
13	0	0	0	0	476	
14	0	0	0	0	518	
15	0	0	0	0	460	
0	0	0	0	0	515	
1	0	0	0	0	453	
2	0	0	0	0	533	
3	0	0	0	0	461	
4	0	0	0	0	523	
5	0	0	0	0	469	
6	0	0	0	0	514	
7	0	0	0	0	420	
8	0	0	0	0	520	
9	0	0	0	0	424	
10	0	0	0	0	510	
11	0	0	0	0	477	
12	0	0	0	0	499	
13	0	0	0	0	472	
14	0	0	0	0	513	
15	0	0	0	0	480	
0	0	0	0	0	513	
1	0	0	0	0	484	
2	0	0	0	0	525	
3	0	0	0	0	417	
4	0	0	0	0	511	
5	0	0	0	0	475	
6	0	0	0	0	510	
7	0	0	0	0	470	
8	0	0	0	0	503	
9	0	0	0	0	472	
10	0	0	0	0	519	
11	0	0	0	0	466	
12	0	0	0	0	508	
13	0	0	0	0	489	
14	0	0	0	0	559	
15	0	0	0	0	428	
0	0	0	0	0	514	
1	0	0	0	0	465	
2	0	0	0	0	494	
3	0	0	0	0	467	
4	0	0	0	0	527	
5	0	0	0	0	499	
6	0	0	0	0	492	
7	0	0	0	0	477	
8	0	0	0	0	548	
9	0	0	0	0	473	
10	0	0	0	0	491	
11	0	0	0	0	457	
12	0	0	0	0	515	
13	0	0	0	0	468	
14	0	0	0	0	537	
15	0	0	0	0	472	
0	0	0	0	0	503	
1	0	0	0	0	433	
2	0	0	0	0	542	
3	0	0	0	0	461	
4	0	0	0	0	517	
5	0	0	0	0	415	
6	0	0	0	0	514	
7	0	0	0	0	417	
8	0	0	0	0	509	
9	0	0	0	0	491	
10	0	0	0	0	504	
11	0	0	0	0	395	
12	0	0	0	0	486	
13	0	0	0	0	511	
14	0	0	0	0	446	
15	0	0	0	0	509	
0	0	0	0	0	504	
1	0	0	0	0	519	
2	0	0	0	0	528	
3	0	0	0	0	425	
4	0	0	0	0	518	
5	0	0	0	0	499	
6	0	0	0	0	508	
7	0	0	0	0	426	
8	0	0	0	0	511	
9	0	0	0	0	492	
10	0	0	0	0	511	
11	0	0	0	0	472	
12	0	0	0	0	477	
13	0	0	0	0	521	
14	0	0	0	0	428	
15	0	0	0	0	427	
0	0	0	0	0	555	
1	0	0	0	0	374	
2	0	0	0	0	551	
3	0	0	0	0	380	
4	0	0	0	0	510	
5	0	0	0	0	508	
6	0	0	0	0	463	
7	0	0	0	0	424	
8	0	0	0	0	535	
9	0	0	0	0	352	
10	0	0	0	0	692	
11	0	0	0	0	287	
12	0	0	0	0	417	
13	0	0	0	0	472	
14	0	0	0	0	460	
15	0	0	0	0	533	
0	0	0	0	0	647	
1	0	0	0	0	389	
2	0	0	0	0	754	
3	0	0	0	0	339	
4	0	0	0	0	627	
5	0	0	0	0	471	
6	0	0	0	0	608	
7	0	0	0	0	709	
8	0	0	0	0	472	
9	0	0	0	0	433	
10	0	0	0	0	693	
11	0	0	0	0	451	
12	0	0	0	0	464	
13	0	0	0	0	509	
14	0	0	0	0	345	
15	0	0	0	0	559	
0	0	0	0	0	524	
1	0	0	0	0	691	
2	0	0	0	0	376	
3	0	0	0	0	468	
4	0	0	0	0	379	
5	0	0	0	0	401	
6	0	0	0	0	355	
7	0	0	0	0	212	
8	0	0	0	0	635	
9	0	0	0	0	440	
10	0	0	0	0	491	
11	0	0	0	0	486	
12	0	0	0	0	475	
13	0	0	0	0	705	
14	0	0	0	0	450	
15	0	0	0	0	546	
0	0	0	0	0	424	
1	0	0	0	0	550	
2	0	0	0	0	535	
3	0	0	0	0	501	
4	0	0	0	0	552	
5	0	0	0	0	552	
6	0	0	0	0	366	
7	0	0	0	0	941	
8	0	0	0	0	599	
9	0	0	0	0	617	
10	0	0	0	0	449	
11	0	0	0	0	442	
12	0	0	0	0	400	
13	0	0	0	0	516	
14	0	0	0	0	388	
15	0	0	0	0	341	
0	0	0	0	0	553	
1	0	0	0	0	441	
2	0	0	0	0	286	
3	0	0	0	0	556	
4	0	0	0	0	715	
5	0	0	0	0	243	
6	0	0	0	0	452	
7	0	0	0	0	655	
8	0	0	0	0	524	
9	0	0	0	0	628	
10	0	0	0	0	703	
11	0	0	0	0	363	
12	0	0	0	0	483	
13	0	0	0	0	675	
14	0	0	0	0	423	
15	0	0	0	0	517	
0	0	0	0	0	656	
1	0	0	0	0	224	
2	0	0	0	0	677	
3	0	0	0	0	47	
4	0	0	0	0	764	
5	0	0	0	0	431	
6	0	0	0	0	444	
7	0	0	0	0	566	
8	0	0	0	0	260	
9	0	0	0	0	734	
10	0	0	0	0	299	
11	0	0	0	0	393	
12	0	0	0	0	572	
13	0	0	0	0	425	
14	0	0	0	0	125	
15	0	0	0	0	609	
0	0	0	0	0	659	
1	0	0	0	0	744	
2	0	0	0	0	385	
3	0	0	0	0	259	
4	0	0	0	0	437	
5	0	0	0	0	812	
6	0	0	0	0	444	
7	0	0	0	0	138	
8	0	0	0	0	207	
9	0	0	0	0	288	
10	0	0	0	0	561	
11	0	0	0	0	536	
12	0	0	0	0	190	
13	0	0	0	0	519	
14	0	0	0	0	420	
15	0	0	0	0	482	
0	0	0	0	0	640	
1	0	0	0	0	499	
2	0	0	0	0	366	
3	0	0	0	0	328	
4	0	0	0	0	331	
5	0	0	0	0	538	
6	0	0	0	0	489	
7	0	0	0	0	85	
8	0	0	0	0	516	
9	0	0	0	0	409	
10	0	0	0	0	491	
11	0	0	0	0	592	
12	0	0	0	0	357	
13	0	0	0	0	466	
14	0	0	0	0	737	
15	0	0	0	0	85	
0	0	0	0	0	595	
1	0	0	0	0	396	
2	0	0	0	0	358	
3	0	0	0	0	671	
4	0	0	0	0	73	
5	0	0	0	0	762	
6	0	0	0	0	492	
7	0	0	0	0	431	
8	0	0	0	0	282	
9	0	0	0	0	273	
10	0	0	0	0	463	
11	0	0	0	0	541	
12	0	0	0	0	550	
13	0	0	0	0	563	
14	0	0	0	0	620	
15	0	0	0	0	678	
0	0	0	0	0	550	
1	0	0	0	0	348	
2	0	0	0	0	531	
3	0	0	0	0	392	
4	0	0	0	0	550	
5	0	0	0	0	452	
6	0	0	0	0	663	
7	0	0	0	0	412	
8	0	0	0	0	459	
9	0	0	0	0	254	
10	0	0	0	0	521	
11	0	0	0	0	417	
12	0	0	0	0	525	
13	0	0	0	0	468	
14	0	0	0	0	476	
15	0	0	0	0	435	
0	0	0	0	0	435	
1	0	0	0	0	469	
2	0	0	0	0	486	
3	0	0	0	0	461	
4	0	0	0	0	482	
5	0	0	0	0	463	
6	0	0	0	0	448	
7	0	0	0	0	423	
8	0	0	0	0	488	
9	0	0	0	0	377	
10	0	0	0	0	488	
11	0	0	0	0	429	
12	0	0	0	0	560	
13	0	0	0	0	443	
14	0	0	0	0	505	
15	0	0	0	0	463	
0	0	0	0	0	519	
1	0	0	0	0	476	
2	0	0	0	0	532	
3	0	0	0	0	492	
4	0	0	0	0	508	
5	0	0	0	0	474	
6	0	0	0	0	481	
7	0	0	0	0	487	
8	0	0	0	0	500	
9	0	0	0	0	443	
10	0	0	0	0	504	
11	0	0	0	0	458	
12	0	0	0	0	493	
13	0	0	0	0	451	
14	0	0	0	0	522	
15	0	0	0	0	444	
0	0	0	0	0	508	
1	0	0	0	0	438	
2	0	0	0	0	531	
3	0	0	0	0	413	
4	0	0	0	0	473	
5	0	0	0	0	446	
6	0	0	0	0	520	
7	0	0	0	0	421	
8	0	0	0	0	521	
9	0	0	0	0	456	
10	0	0	0	0	486	
11	0	0	0	0	449	
12	0	0	0	0	491	
13	0	0	0	0	463	
14	0	0	0	0	495	
15	0	0	0	0	428	
0	0	0	0	0	508	
1	0	0	0	0	467	
2	0	0	0	0	502	
3	0	0	0	0	430	
4	0	0	0	0	491	
5	0	0	0	0	425	
6	0	0	0	0	561	
7	0	0	0	0	438	
8	0	0	0	0	590	
9	0	0	0	0	418	
10	0	0	0	0	471	
11	0	0	0	0	464	
12	0	0	0	0	510	
13	0	0	0	0	459	
14	0	0	0	0	492	
15	0	0	0	0	462	
0	0	0	0	0	507	
1	0	0	0	0	462	
2	0	0	0	0	511	
3	0	0	0	0	480	
4	0	0	0	0	514	
5	0	0	0	0	461	
6	0	0	0	0	489	
7	0	0	0	0	462	
8	0	0	0	0	495	
9	0	0	0	0	409	
10	0	0	0	0	512	
11	0	0	0	0	504	
12	0	0	0	0	525	
13	0	0	0	0	432	
14	0	0	0	0	517	
15	0	0	0	0	460	
0	0	0	0	0	514	
1	0	0	0	0	449	
2	0	0	0	0	513	
3	0	0	0	0	461	
4	0	0	0	0	453	
5	0	0	0	0	470	
6	0	0	0	0	494	
7	0	0	0	0	467	
8	0	0	0	0	492	
9	0	0	0	0	471	
10	0	0	0	0	493	
11	0	0	0	0	432	
12	0	0	0	0	498	
13	0	0	0	0	447	
14	0	0	0	0	508	
15	0	0	0	0	434	
0	0	0	0	0	502	
1	0	0	0	0	467	
2	0	0	0	0	494	
3	0	0	0	0	451	
4	0	0	0	0	489	
5	0	0	0	0	460	
6	0	0	0	0	492	
7	0	0	0	0	484	
8	0	0	0	0	495	
9	0	0	0	0	477	
10	0	0	0	0	474	
11	0	0	0	0	482	
12	0	0	0	0	493	
13	0	0	0	0	473	
14	0	0	0	0	390	
15	0	0	0	0	506	
0	0	0	0	0	483	
1	0	0	0	0	464	
2	0	0	0	0	524	
3	0	0	0	0	459	
4	0	0	0	0	502	
5	0	0	0	0	489	
6	0	0	0	0	467	
7	0	0	0	0	443	
8	0	0	0	0	528	
9	0	0	0	0	461	
10	0	0	0	0	445	
11	0	0	0	0	512	
12	0	0	0	0	463	
13	0	0	0	0	467	
14	0	0	0	0	550	
15	0	0	0	0	483	
0	0	0	0	0	508	
1	0	0	0	0	457	
2	0	0	0	0	507	
3	0	0	0	0	480	
4	0	0	0	0	519	
5	0	0	0	0	454	
6	0	0	0	0	433	
7	0	0	0	0	455	
8	0	0	0	0	535	
9	0	0	0	0	456	
10	0	0	0	0	529	
11	0	0	0	0	486	
12	0	0	0	0	351	
13	0	0	0	0	484	
14	0	0	0	0	500	
15	0	0	0	0	433	
0	0	0	0	0	552	
1	0	0	0	0	457	
2	0	0	0	0	485	
3	0	0	0	0	583	
4	0	0	0	0	456	
5	0	0	0	0	531	
6	0	0	0	0	463	
7	0	0	0	0	554	
8	0	0	0	0	492	
9	0	0	0	0	419	
10	0	0	0	0	520	
11	0	0	0	0	626	
12	0	0	0	0	527	
13	0	0	0	0	338	
14	0	0	0	0	474	
15	0	0	0	0	467	
0	0	0	0	0	484	
1	0	0	0	0	544	
2	0	0	0	0	420	
3	0	0	0	0	527	
4	0	0	0	0	424	
5	0	0	0	0	481	
6	0	0	0	0	719	
7	0	0	0	0	524	
8	0	0	0	0	307	
9	0	0	0	0	524	
10	0	0	0	0	453	
11	0	0	0	0	567	
12	0	0	0	0	580	
13	0	0	0	0	443	
14	0	0	0	0	264	
15	0	0	0	0	589	
0	0	0	0	0	438	
1	0	0	0	0	534	
2	0	0	0	0	442	
3	0	0	0	0	620	
4	0	0	0	0	533	
5	0	0	0	0	580	
6	0	0	0	0	508	
7	0	0	0	0	484	
8	0	0	0	0	452	
9	0	0	0	0	516	
10	0	0	0	0	479	
11	0	0	0	0	460	
12	0	0	0	0	569	
13	0	0	0	0	596	
14	0	0	0	0	503	
15	0	0	0	0	506	
0	0	0	0	0	626	
1	0	0	0	0	275	
2	0	0	0	0	621	
3	0	0	0	0	582	
4	0	0	0	0	387	
5	0	0	0	0	453	
6	0	0	0	0	406	
7	0	0	0	0	497	
8	0	0	0	0	578	
9	0	0	0	0	409	
10	0	0	0	0	546	
11	0	0	0	0	611	
12	0	0	0	0	482	
13	0	0	0	0	388	
14	0	0	0	0	732	
15	0	0	0	0	468	
0	0	0	0	0	364	
1	0	0	0	0	726	
2	0	0	0	0	479	
3	0	0	0	0	515	
4	0	0	0	0	439	
5	0	0	0	0	526	
6	0	0	0	0	732	
7	0	0	0	0	396	
8	0	0	0	0	507	
9	0	0	0	0	535	
10	0	0	0	0	419	
11	0	0	0	0	415	
12	0	0	0	0	546	
13	0	0	0	0	312	
14	0	0	0	0	548	
15	0	0	0	0	465	
0	0	0	0	0	657	
1	0	0	0	0	343	
2	0	0	0	0	536	
3	0	0	0	0	402	
4	0	0	0	0	502	
5	0	0	0	0	522	
6	0	0	0	0	478	
7	0	0	0	0	525	
8	0	0	0	0	540	
9	0	0	0	0	398	
10	0	0	0	0	693	
11	0	0	0	0	477	
12	0	0	0	0	555	
13	0	0	0	0	646	
14	0	0	0	0	406	
15	0	0	0	0	583	
0	0	0	0	0	315	
1	0	0	0	0	365	
2	0	0	0	0	387	
3	0	0	0	0	287	
4	0	0	0	0	435	
5	0	0	0	0	631	
6	0	0	0	0	437	
7	0	0	0	0	464	
8	0	0	0	0	475	
9	0	0	0	0	451	
10	0	0	0	0	541	
11	0	0	0	0	577	
12	0	0	0	0	412	
13	0	0	0	0	611	
14	0	0	0	0	412	
15	0	0	0	0	581	
0	0	0	0	0	445	
1	0	0	0	0	358	
2	0	0	0	0	453	
3	0	0	0	0	516	
4	0	0	0	0	360	
5	0	0	0	0	528	
6	0	0	0	0	455	
7	0	0	0	0	846	
8	0	0	0	0	456	
9	0	0	0	0	524	
10	0	0	0	0	309	
11	0	0	0	0	598	
12	0	0	0	0	278	
13	0	0	0	0	595	
14	0	0	0	0	434	
15	0	0	0	0	720	
0	0	0	0	0	355	
1	0	0	0	0	401	
2	0	0	0	0	324	
3	0	0	0	0	614	
4	0	0	0	0	568	
5	0	0	0	0	873	
6	0	0	0	0	547	
7	0	0	0	0	391	
8	0	0	0	0	422	
9	0	0	0	0	367	
10	0	0	0	0	666	
11	0	0	0	0	784	
12	0	0	0	0	688	
13	0	0	0	0	460	
14	0	0	0	0	583	
15	0	0	0	0	586	
0	0	0	0	0	236	
1	0	0	0	0	656	
2	0	0	0	0	580	
3	0	0	0	0	813	
4	0	0	0	0	368	
5	0	0	0	0	863	
6	0	0	0	0	322	
7	0	0	0	0	695	
8	0	0	0	0	443	
9	0	0	0	0	365	
10	0	0	0	0	679	
11	0	0	0	0	439	
12	0	0	0	0	611	
13	0	0	0	0	548	
14	0	0	0	0	270	
15	0	0	0	0	841	
0	0	0	0	0	700	
1	0	0	0	0	826	
2	0	0	0	0	649	
3	0	0	0	0	678	
4	0	0	0	0	385	
5	0	0	0	0	352	
6	0	0	0	0	557	
7	0	0	0	0	313	
8	0	0	0	0	507	
9	0	0	0	0	270	
10	0	0	0	0	579	
11	0	0	0	0	681	
12	0	0	0	0	364	
13	0	0	0	0	525	
14	0	0	0	0	603	
15	0	0	0	0	521	
0	0	0	0	0	473	
1	0	0	0	0	482	
2	0	0	0	0	548	
3	0	0	0	0	482	
4	0	0	0	0	528	
5	0	0	0	0	446	
6	0	0	0	0	472	
7	0	0	0	0	563	
8	0	0	0	0	579	
9	0	0	0	0	505	
10	0	0	0	0	486	
11	0	0	0	0	485	
12	0	0	0	0	476	
13	0	0	0	0	476	
14	0	0	0	0	461	
15	0	0	0	0	532	
0	0	0	0	0	503	
1	0	0	0	0	540	
2	0	0	0	0	494	
3	0	0	0	0	467	
4	0	0	0	0	480	
5	0	0	0	0	493	
6	0	0	0	0	520	
7	0	0	0	0	451	
8	0	0	0	0	552	
9	0	0	0	0	436	
10	0	0	0	0	503	
11	0	0	0	0	552	
12	0	0	0	0	499	
13	0	0	0	0	464	
14	0	0	0	0	483	
15	0	0	0	0	554	
0	0	0	0	0	486	
1	0	0	0	0	463	
2	0	0	0	0	477	
3	0	0	0	0	514	
4	0	0	0	0	466	
5	0	0	0	0	533	
6	0	0	0	0	493	
7	0	0	0	0	490	
8	0	0	0	0	485	
9	0	0	0	0	478	
10	0	0	0	0	508	
11	0	0	0	0	471	
12	0	0	0	0	495	
13	0	0	0	0	518	
14	0	0	0	0	494	
15	0	0	0	0	481	
0	0	0	0	0	483	
1	0	0	0	0	503	
2	0	0	0	0	497	
3	0	0	0	0	515	
4	0	0	0	0	505	
5	0	0	0	0	484	
6	0	0	0	0	494	
7	0	0	0	0	497	
8	0	0	0	0	505	
9	0	0	0	0	478	
10	0	0	0	0	494	
11	0	0	0	0	495	
12	0	0	0	0	502	
13	0	0	0	0	476	
14	0	0	0	0	483	
15	0	0	0	0	506	
0	0	0	0	0	487	
1	0	0	0	0	505	
2	0	0	0	0	494	
3	0	0	0	0	491	
4	0	0	0	0	493	
5	0	0	0	0	491	
6	0	0	0	0	493	
7	0	0	0	0	487	
8	0	0	0	0	490	
9	0	0	0	0	482	
10	0	0	0	0	513	
11	0	0	0	0	512	
12	0	0	0	0	482	
13	0	0	0	0	500	
14	0	0	0	0	507	
15	0	0	0	0	519	
0	0	0	0	0	503	
1	0	0	0	0	516	
2	0	0	0	0	533	
3	0	0	0	0	479	
4	0	0	0	0	555	
5	0	0	0	0	546	
6	0	0	0	0	462	
7	0	0	0	0	527	
8	0	0	0	0	491	
9	0	0	0	0	504	
10	0	0	0	0	498	
11	0	0	0	0	472	
12	0	0	0	0	525	
13	0	0	0	0	503	
14	0	0	0	0	495	
15	0	0	0	0	508	
0	0	0	0	0	495	
1	0	0	0	0	490	
2	0	0	0	0	479	
3	0	0	0	0	521	
4	0	0	0	0	471	
5	0	0	0	0	513	
6	0	0	0	0	492	
7	0	0	0	0	516	
8	0	0	0	0	483	
9	0	0	0	0	494	
10	0	0	0	0	487	
11	0	0	0	0	462	
12	0	0	0	0	526	
13	0	0	0	0	500	
14	0	0	0	0	508	
15	0	0	0	0	504	
0	0	0	0	0	503	
1	0	0	0	0	505	
2	0	0	0	0	472	
3	0	0	0	0	513	
4	0	0	0	0	501	
5	0	0	0	0	508	
6	0	0	0	0	508	
7	0	0	0	0	498	
8	0	0	0	0	467	
9	0	0	0	0	554	
10	0	0	0	0	513	
11	0	0	0	0	450	
12	0	0	0	0	504	
13	0	0	0	0	515	
14	0	0	0	0	401	
15	0	0	0	0	564	
0	0	0	0	0	471	
1	0	0	0	0	470	
2	0	0	0	0	565	
3	0	0	0	0	452	
4	0	0	0	0	475	
5	0	0	0	0	554	
6	0	0	0	0	496	
7	0	0	0	0	440	
8	0	0	0	0	521	
9	0	0	0	0	518	
10	0	0	0	0	600	
11	0	0	0	0	511	
12	0	0	0	0	470	
13	0	0	0	0	513	
14	0	0	0	0	532	
15	0	0	0	0	500	
0	0	0	0	0	559	
1	0	0	0	0	490	
2	0	0	0	0	439	
3	0	0	0	0	495	
4	0	0	0	0	531	
5	0	0	0	0	479	
6	0	0	0	0	448	
7	0	0	0	0	521	
8	0	0	0	0	497	
9	0	0	0	0	504	
10	0	0	0	0	473	
11	0	0	0	0	634	
12	0	0	0	0	374	
13	0	0	0	0	620	
14	0	0	0	0	454	
15	0	0	0	0	579	
0	0	0	0	0	546	
1	0	0	0	0	519	
2	0	0	0	0	534	
3	0	0	0	0	447	
4	0	0	0	0	567	
5	0	0	0	0	455	
6	0	0	0	0	211	
7	0	0	0	0	768	
8	0	0	0	0	306	
9	0	0	0	0	469	
10	0	0	0	0	517	
11	0	0	0	0	495	
12	0	0	0	0	653	
13	0	0	0	0	576	
14	0	0	0	0	377	
15	0	0	0	0	600	
0	0	0	0	0	480	
1	0	0	0	0	564	
2	0	0	0	0	481	
3	0	0	0	0	558	
4	0	0	0	0	323	
5	0	0	0	0	489	
6	0	0	0	0	581	
7	0	0	0	0	463	
8	0	0	0	0	469	
9	0	0	0	0	452	
10	0	0	0	0	465	
11	0	0	0	0	632	
12	0	0	0	0	492	
13	0	0	0	0	374	
14	0	0	0	0	453	
15	0	0	0	0	524	
0	0	0	0	0	308	
1	0	0	0	0	482	
2	0	0	0	0	504	
3	0	0	0	0	583	
4	0	0	0	0	412	
5	0	0	0	0	542	
6	0	0	0	0	463	
7	0	0	0	0	366	
8	0	0	0	0	488	
9	0	0	0	0	544	
10	0	0	0	0	390	
11	0	0	0	0	404	
12	0	0	0	0	597	
13	0	0	0	0	535	
14	0	0	0	0	460	
15	0	0	0	0	512	
0	0	0	0	0	430	
1	0	0	0	0	550	
2	0	0	0	0	534	
3	0	0	0	0	563	
4	0	0	0	0	460	
5	0	0	0	0	685	
6	0	0	0	0	450	
7	0	0	0	0	600	
8	0	0	0	0	559	
9	0	0	0	0	501	
10	0	0	0	0	958	
11	0	0	0	0	351	
12	0	0	0	0	452	
13	0	0	0	0	782	
14	0	0	0	0	605	
15	0	0	0	0	392	
0	0	0	0	0	561	
1	0	0	0	0	156	
2	0	0	0	0	342	
3	0	0	0	0	396	
4	0	0	0	0	514	
5	0	0	0	0	549	
6	0	0	0	0	567	
7	0	0	0	0	602	
8	0	0	0	0	787	
9	0	0	0	0	461	
10	0	0	0	0	539	
11	0	0	0	0	555	
12	0	0	0	0	711	
13	0	0	0	0	527	
14	0	0	0	0	292	
15	0	0	0	0	406	
0	0	0	0	0	255	
1	0	0	0	0	498	
2	0	0	0	0	595	
3	0	0	0	0	493	
4	0	0	0	0	757	
5	0	0	0	0	482	
6	0	0	0	0	423	
7	0	0	0	0	760	
8	0	0	0	0	629	
9	0	0	0	0	621	
10	0	0	0	0	417	
11	0	0	0	0	519	
12	0	0	0	0	461	
13	0	0	0	0	196	
14	0	0	0	0	717	
15	0	0	0	0	367	
0	0	0	0	0	445	
1	0	0	0	0	482	
2	0	0	0	0	564	
3	0	0	0	0	155	
4	0	0	0	0	430	
5	0	0	0	0	269	
6	0	0	0	0	438	
7	0	0	0	0	1022	
8	0	0	0	0	460	
9	0	0	0	0	526	
10	0	0	0	0	293	
11	0	0	0	0	767	
12	0	0	0	0	138	
13	0	0	0	0	388	
14	0	0	0	0	281	
15	0	0	0	0	667	
0	0	0	0	0	822	
1	0	0	0	0	535	
2	0	0	0	0	430	
3	0	0	0	0	667	
4	0	0	0	0	581	
5	0	0	0	0	670	
6	0	0	0	0	267	
7	0	0	0	0	700	
8	0	0	0	0	487	
9	0	0	0	0	819	
10	0	0	0	0	555	
11	0	0	0	0	831	
12	0	0	0	0	636	
13	0	0	0	0	568	
14	0	0	0	0	343	
15	0	0	0	0	606	
0	0	0	0	0	88	
1	0	0	0	0	60	
2	0	0	0	0	174	
3	0	0	0	0	455	
4	0	0	0	0	524	
5	0	0	0	0	410	
6	0	0	0	0	427	
7	0	0	0	0	530	
8	0	0	0	0	467	
9	0	0	0	0	503	
10	0	0	0	0	621	
11	0	0	0	0	519	
12	0	0	0	0	551	
13	0	0	0	0	378	
14	0	0	0	0	508	
15	0	0	0	0	526	
0	0	0	0	0	499	
1	0	0	0	0	523	
2	0	0	0	0	486	
3	0	0	0	0	610	
4	0	0	0	0	482	
5	0	0	0	0	509	
6	0	0	0	0	534	
7	0	0	0	0	517	
8	0	0	0	0	464	
9	0	0	0	0	497	
10	0	0	0	0	504	
11	0	0	0	0	540	
12	0	0	0	0	535	
13	0	0	0	0	484	
14	0	0	0	0	505	
15	0	0	0	0	531	
0	0	0	0	0	508	
1	0	0	0	0	508	
2	0	0	0	0	483	
3	0	0	0	0	551	
4	0	0	0	0	513	
5	0	0	0	0	558	
6	0	0	0	0	492	
7	0	0	0	0	520	
8	0	0	0	0	444	
9	0	0	0	0	544	
10	0	0	0	0	475	
11	0	0	0	0	530	
12	0	0	0	0	487	
13	0	0	0	0	516	
14	0	0	0	0	479	
15	0	0	0	0	521	
0	0	0	0	0	476	
1	0	0	0	0	513	
2	0	0	0	0	489	
3	0	0	0	0	515	
4	0	0	0	0	462	
5	0	0	0	0	527	
6	0	0	0	0	479	
7	0	0	0	0	540	
8	0	0	0	0	487	
9	0	0	0	0	534	
10	0	0	0	0	496	
11	0	0	0	0	504	
12	0	0	0	0	467	
13	0	0	0	0	532	
14	0	0	0	0	478	
15	0	0	0	0	557	
0	0	0	0	0	468	
1	0	0	0	0	531	
2	0	0	0	0	494	
3	0	0	0	0	528	
4	0	0	0	0	486	
5	0	0	0	0	540	
6	0	0	0	0	479	
7	0	0	0	0	518	
8	0	0	0	0	512	
9	0	0	0	0	523	
10	0	0	0	0	526	
11	0	0	0	0	480	
12	0	0	0	0	553	
13	0	0	0	0	509	
14	0	0	0	0	488	
15	0	0	0	0	531	
0	0	0	0	0	510	
1	0	0	0	0	537	
2	0	0	0	0	486	
3	0	0	0	0	537	
4	0	0	0	0	445	
5	0	0	0	0	591	
6	0	0	0	0	435	
7	0	0	0	0	579	
8	0	0	0	0	469	
9	0	0	0	0	531	
10	0	0	0	0	513	
11	0	0	0	0	530	
12	0	0	0	0	494	
13	0	0	0	0	538	
14	0	0	0	0	454	
15	0	0	0	0	527	
0	0	0	0	0	496	
1	0	0	0	0	521	
2	0	0	0	0	506	
3	0	0	0	0	565	
4	0	0	0	0	473	
5	0	0	0	0	545	
6	0	0	0	0	500	
7	0	0	0	0	527	
8	0	0	0	0	499	
9	0	0	0	0	499	
10	0	0	0	0	487	
11	0	0	0	0	525	
12	0	0	0	0	487	
13	0	0	0	0	539	
14	0	0	0	0	458	
15	0	0	0	0	542	
0	0	0	0	0	483	
1	0	0	0	0	546	
2	0	0	0	0	473	
3	0	0	0	0	547	
4	0	0	0	0	484	
5	0	0	0	0	536	
6	0	0	0	0	502	
7	0	0	0	0	549	
8	0	0	0	0	498	
9	0	0	0	0	572	
10	0	0	0	0	479	
11	0	0	0	0	520	
12	0	0	0	0	501	
13	0	0	0	0	519	
14	0	0	0	0	473	
15	0	0	0	0	516	
0	0	0	0	0	486	
1	0	0	0	0	524	
2	0	0	0	0	491	
3	0	0	0	0	550	
4	0	0	0	0	504	
5	0	0	0	0	547	
6	0	0	0	0	503	
7	0	0	0	0	543	
8	0	0	0	0	451	
9	0	0	0	0	561	
10	0	0	0	0	504	
11	0	0	0	0	528	
12	0	0	0	0	488	
13	0	0	0	0	535	
14	0	0	0	0	506	
15	0	0	0	0	535	
0	0	0	0	0	471	
1	0	0	0	0	544	
2	0	0	0	0	486	
3	0	0	0	0	562	
4	0	0	0	0	469	
5	0	0	0	0	544	
6	0	0	0	0	536	
7	0	0	0	0	539	
8	0	0	0	0	492	
9	0	0	0	0	549	
10	0	0	0	0	536	
11	0	0	0	0	527	
12	0	0	0	0	460	
13	0	0	0	0	561	
14	0	0	0	0	514	
15	0	0	0	0	512	
0	0	0	0	0	480	
1	0	0	0	0	513	
2	0	0	0	0	509	
3	0	0	0	0	512	
4	0	0	0	0	472	
5	0	0	0	0	542	
6	0	0	0	0	545	
7	0	0	0	0	615	
8	0	0	0	0	508	
9	0	0	0	0	551	
10	0	0	0	0	502	
11	0	0	0	0	567	
12	0	0	0	0	486	
13	0	0	0	0	435	
14	0	0	0	0	532	
15	0	0	0	0	506	
0	0	0	0	0	475	
1	0	0	0	0	524	
2	0	0	0	0	509	
3	0	0	0	0	536	
4	0	0	0	0	496	
5	0	0	0	0	560	
6	0	0	0	0	521	
7	0	0	0	0	490	
8	0	0	0	0	533	
9	0	0	0	0	510	
10	0	0	0	0	521	
11	0	0	0	0	478	
12	0	0	0	0	538	
13	0	0	0	0	542	
14	0	0	0	0	514	
15	0	0	0	0	526	
0	0	0	0	0	540	
1	0	0	0	0	444	
2	0	0	0	0	503	
3	0	0	0	0	595	
4	0	0	0	0	484	
5	0	0	0	0	543	
6	0	0	0	0	526	
7	0	0	0	0	510	
8	0	0	0	0	462	
9	0	0	0	0	583	
10	0	0	0	0	401	
11	0	0	0	0	598	
12	0	0	0	0	455	
13	0	0	0	0	527	
14	0	0	0	0	555	
15	0	0	0	0	487	
0	0	0	0	0	546	
1	0	0	0	0	537	
2	0	0	0	0	481	
3	0	0	0	0	583	
4	0	0	0	0	473	
5	0	0	0	0	595	
6	0	0	0	0	471	
7	0	0	0	0	516	
8	0	0	0	0	454	
9	0	0	0	0	564	
10	0	0	0	0	392	
11	0	0	0	0	460	
12	0	0	0	0	427	
13	0	0	0	0	622	
14	0	0	0	0	463	
15	0	0	0	0	437	
0	0	0	0	0	657	
1	0	0	0	0	440	
2	0	0	0	0	600	
3	0	0	0	0	579	
4	0	0	0	0	391	
5	0	0	0	0	612	
6	0	0	0	0	463	
7	0	0	0	0	578	
8	0	0	0	0	465	
9	0	0	0	0	463	
10	0	0	0	0	498	
11	0	0	0	0	568	
12	0	0	0	0	533	
13	0	0	0	0	428	
14	0	0	0	0	511	
15	0	0	0	0	633	
0	0	0	0	0	402	
1	0	0	0	0	573	
2	0	0	0	0	700	
3	0	0	0	0	511	
4	0	0	0	0	414	
5	0	0	0	0	504	
6	0	0	0	0	425	
7	0	0	0	0	662	
8	0	0	0	0	408	
9	0	0	0	0	563	
10	0	0	0	0	380	
11	0	0	0	0	464	
12	0	0	0	0	659	
13	0	0	0	0	527	
14	0	0	0	0	433	
15	0	0	0	0	574	
0	0	0	0	0	539	
1	0	0	0	0	441	
2	0	0	0	0	550	
3	0	0	0	0	468	
4	0	0	0	0	351	
5	0	0	0	0	471	
6	0	0	0	0	512	
7	0	0	0	0	435	
8	0	0	0	0	555	
9	0	0	0	0	406	
10	0	0	0	0	696	
11	0	0	0	0	596	
12	0	0	0	0	498	
13	0	0	0	0	531	
14	0	0	0	0	476	
15	0	0	0	0	507	
0	0	0	0	0	501	
1	0	0	0	0	672	
2	0	0	0	0	483	
3	0	0	0	0	600	
4	0	0	0	0	502	
5	0	0	0	0	468	
6	0	0	0	0	742	
7	0	0	0	0	659	
8	0	0	0	0	433	
9	0	0	0	0	555	
10	0	0	0	0	655	
11	0	0	0	0	594	
12	0	0	0	0	615	
13	0	0	0	0	448	
14	0	0	0	0	664	
15	0	0	0	0	320	
0	0	0	0	0	416	
1	0	0	0	0	563	
2	0	0	0	0	499	
3	0	0	0	0	606	
4	0	0	0	0	506	
5	0	0	0	0	581	
6	0	0	0	0	163	
7	0	0	0	0	854	
8	0	0	0	0	335	
9	0	0	0	0	691	
10	0	0	0	0	464	
11	0	0	0	0	511	
12	0	0	0	0	542	
13	0	0	0	0	520	
14	0	0	0	0	751	
15	0	0	0	0	536	
0	0	0	0	0	442	
1	0	0	0	0	775	
2	0	0	0	0	606	
3	0	0	0	0	392	
4	0	0	0	0	539	
5	0	0	0	0	555	
6	0	0	0	0	698	
7	0	0	0	0	561	
8	0	0	0	0	430	
9	0	0	0	0	587	
10	0	0	0	0	276	
11	0	0	0	0	423	
12	0	0	0	0	338	
13	0	0	0	0	627	
14	0	0	0	0	467	
15	0	0	0	0	609	
0	0	0	0	0	469	
1	0	0	0	0	678	
2	0	0	0	0	419	
3	0	0	0	0	500	
4	0	0	0	0	538	
5	0	0	0	0	575	
6	0	0	0	0	598	
7	0	0	0	0	540	
8	0	0	0	0	547	
9	0	0	0	0	580	
10	0	0	0	0	764	
11	0	0	0	0	558	
12	0	0	0	0	580	
13	0	0	0	0	364	
14	0	0	0	0	510	
15	0	0	0	0	563	
0	0	0	0	0	472	
1	0	0	0	0	545	
2	0	0	0	0	600	
3	0	0	0	0	572	
4	0	0	0	0	486	
5	0	0	0	0	548	
6	0	0	0	0	486	
7	0	0	0	0	561	
8	0	0	0	0	545	
9	0	0	0	0	623	
10	0	0	0	0	641	
11	0	0	0	0	603	
12	0	0	0	0	553	
13	0	0	0	0	652	
14	0	0	0	0	504	
15	0	0	0	0	447	
0	0	0	0	0	509	
1	0	0	0	0	587	
2	0	0	0	0	445	
3	0	0	0	0	511	
4	0	0	0	0	478	
5	0	0	0	0	554	
6	0	0	0	0	496	
7	0	0	0	0	578	
8	0	0	0	0	377	
9	0	0	0	0	643	
10	0	0	0	0	487	
11	0	0	0	0	562	
12	0	0	0	0	450	
13	0	0	0	0	509	
14	0	0	0	0	514	
15	0	0	0	0	586	
0	0	0	0	0	496	
1	0	0	0	0	578	
2	0	0	0	0	522	
3	0	0	0	0	578	
4	0	0	0	0	384	
5	0	0	0	0	576	
6	0	0	0	0	530	
7	0	0	0	0	591	
8	0	0	0	0	501	
9	0	0	0	0	579	
10	0	0	0	0	490	
11	0	0	0	0	554	
12	0	0	0	0	506	
13	0	0	0	0	561	
14	0	0	0	0	524	
15	0	0	0	0	583	
0	0	0	0	0	505	
1	0	0	0	0	567	
2	0	0	0	0	504	
3	0	0	0	0	568	
4	0	0	0	0	496	
5	0	0	0	0	575	
6	0	0	0	0	501	
7	0	0	0	0	558	
8	0	0	0	0	490	
9	0	0	0	0	571	
10	0	0	0	0	480	
11	0	0	0	0	592	
12	0	0	0	0	447	
13	0	0	0	0	569	
14	0	0	0	0	497	
15	0	0	0	0	587	
0	0	0	0	0	504	
1	0	0	0	0	587	
2	0	0	0	0	495	
3	0	0	0	0	562	
4	0	0	0	0	500	
5	0	0	0	0	583	
6	0	0	0	0	466	
7	0	0	0	0	579	
8	0	0	0	0	492	
9	0	0	0	0	575	
10	0	0	0	0	479	
11	0	0	0	0	556	
12	0	0	0	0	491	
13	0	0	0	0	545	
14	0	0	0	0	519	
15	0	0	0	0	567	
0	0	0	0	0	500	
1	0	0	0	0	593	
2	0	0	0	0	487	
3	0	0	0	0	598	
4	0	0	0	0	482	
5	0	0	0	0	594	
6	0	0	0	0	490	
7	0	0	0	0	607	
8	0	0	0	0	489	
9	0	0	0	0	591	
10	0	0	0	0	502	
11	0	0	0	0	543	
12	0	0	0	0	498	
13	0	0	0	0	605	
14	0	0	0	0	471	
15	0	0	0	0	576	
0	0	0	0	0	486	
1	0	0	0	0	589	
2	0	0	0	0	451	
3	0	0	0	0	563	
4	0	0	0	0	499	
5	0	0	0	0	592	
6	0	0	0	0	521	
7	0	0	0	0	565	
8	0	0	0	0	497	
9	0	0	0	0	587	
10	0	0	0	0	489	
11	0	0	0	0	567	
12	0	0	0	0	503	
13	0	0	0	0	566	
14	0	0	0	0	482	
15	0	0	0	0	573	
0	0	0	0	0	492	
1	0	0	0	0	583	
2	0	0	0	0	487	
3	0	0	0	0	606	
4	0	0	0	0	489	
5	0	0	0	0	600	
6	0	0	0	0	494	
7	0	0	0	0	579	
8	0	0	0	0	472	
9	0	0	0	0	609	
10	0	0	0	0	493	
11	0	0	0	0	583	
12	0	0	0	0	503	
13	0	0	0	0	587	
14	0	0	0	0	470	
15	0	0	0	0	611	
0	0	0	0	0	492	
1	0	0	0	0	596	
2	0	0	0	0	463	
3	0	0	0	0	597	
4	0	0	0	0	488	
5	0	0	0	0	595	
6	0	0	0	0	490	
7	0	0	0	0	603	
8	0	0	0	0	481	
9	0	0	0	0	591	
10	0	0	0	0	496	
11	0	0	0	0	608	
12	0	0	0	0	451	
13	0	0	0	0	580	
14	0	0	0	0	504	
15	0	0	0	0	584	
0	0	0	0	0	535	
1	0	0	0	0	595	
2	0	0	0	0	440	
3	0	0	0	0	585	
4	0	0	0	0	505	
5	0	0	0	0	538	
6	0	0	0	0	561	
7	0	0	0	0	564	
8	0	0	0	0	456	
9	0	0	0	0	598	
10	0	0	0	0	589	
11	0	0	0	0	576	
12	0	0	0	0	510	
13	0	0	0	0	565	
14	0	0	0	0	522	
15	0	0	0	0	437	
0	0	0	0	0	573	
1	0	0	0	0	635	
2	0	0	0	0	466	
3	0	0	0	0	559	
4	0	0	0	0	551	
5	0	0	0	0	650	
6	0	0	0	0	496	
7	0	0	0	0	559	
8	0	0	0	0	472	
9	0	0	0	0	614	
10	0	0	0	0	521	
11	0	0	0	0	399	
12	0	0	0	0	582	
13	0	0	0	0	509	
14	0	0	0	0	537	
15	0	0	0	0	524	
0	0	0	0	0	399	
1	0	0	0	0	647	
2	0	0	0	0	535	
3	0	0	0	0	560	
4	0	0	0	0	547	
5	0	0	0	0	589	
6	0	0	0	0	347	
7	0	0	0	0	625	
8	0	0	0	0	431	
9	0	0	0	0	564	
10	0	0	0	0	591	
11	0	0	0	0	527	
12	0	0	0	0	556	
13	0	0	0	0	596	
14	0	0	0	0	435	
15	0	0	0	0	632	
0	0	0	0	0	504	
1	0	0	0	0	575	
2	0	0	0	0	460	
3	0	0	0	0	637	
4	0	0	0	0	422	
5	0	0	0	0	546	
6	0	0	0	0	465	
7	0	0	0	0	628	
8	0	0	0	0	468	
9	0	0	0	0	551	
10	0	0	0	0	453	
11	0	0	0	0	689	
12	0	0	0	0	475	
13	0	0	0	0	614	
14	0	0	0	0	602	
15	0	0	0	0	458	
0	0	0	0	0	537	
1	0	0	0	0	532	
2	0	0	0	0	552	
3	0	0	0	0	696	
4	0	0	0	0	404	
5	0	0	0	0	585	
6	0	0	0	0	523	
7	0	0	0	0	504	
8	0	0	0	0	483	
9	0	0	0	0	582	
10	0	0	0	0	529	
11	0	0	0	0	477	
12	0	0	0	0	448	
13	0	0	0	0	476	
14	0	0	0	0	534	
15	0	0	0	0	581	
0	0	0	0	0	414	
1	0	0	0	0	527	
2	0	0	0	0	528	
3	0	0	0	0	589	
4	0	0	0	0	599	
5	0	0	0	0	531	
6	0	0	0	0	499	
7	0	0	0	0	479	
8	0	0	0	0	451	
9	0	0	0	0	669	
10	0	0	0	0	511	
11	0	0	0	0	667	
12	0	0	0	0	516	
13	0	0	0	0	533	
14	0	0	0	0	552	
15	0	0	0	0	562	
0	0	0	0	0	376	
1	0	0	0	0	486	
2	0	0	0	0	462	
3	0	0	0	0	509	
4	0	0	0	0	518	
5	0	0	0	0	391	
6	0	0	0	0	551	
7	0	0	0	0	513	
8	0	0	0	0	371	
9	0	0	0	0	538	
10	0	0	0	0	459	
11	0	0	0	0	819	
12	0	0	0	0	417	
13	0	0	0	0	481	
14	0	0	0	0	672	
15	0	0	0	0	513	
0	0	0	0	0	446	
1	0	0	0	0	682	
2	0	0	0	0	498	
3	0	0	0	0	647	
4	0	0	0	0	349	
5	0	0	0	0	645	
6	0	0	0	0	513	
7	0	0	0	0	542	
8	0	0	0	0	543	
9	0	0	0	0	335	
10	0	0	0	0	377	
11	0	0	0	0	625	
12	0	0	0	0	222	
13	0	0	0	0	555	
14	0	0	0	0	533	
15	0	0	0	0	551	
0	0	0	0	0	480	
1	0	0	0	0	632	
2	0	0	0	0	570	
3	0	0	0	0	510	
4	0	0	0	0	437	
5	0	0	0	0	568	
6	0	0	0	0	575	
7	0	0	0	0	590	
8	0	0	0	0	566	
9	0	0	0	0	588	
10	0	0	0	0	517	
11	0	0	0	0	709	
12	0	0	0	0	325	
13	0	0	0	0	519	
14	0	0	0	0	490	
15	0	0	0	0	603	
0	0	0	0	0	496	
1	0	0	0	0	404	
2	0	0	0	0	413	
3	0	0	0	0	638	
4	0	0	0	0	380	
5	0	0	0	0	577	
6	0	0	0	0	564	
7	0	0	0	0	507	
8	0	0	0	0	392	
9	0	0	0	0	568	
10	0	0	0	0	495	
11	0	0	0	0	585	
12	0	0	0	0	460	
13	0	0	0	0	328	
14	0	0	0	0	321	
15	0	0	0	0	729	
0	0	0	0	0	416	
1	0	0	0	0	645	
2	0	0	0	0	434	
3	0	0	0	0	560	
4	0	0	0	0	409	
5	0	0	0	0	340	
6	0	0	0	0	425	
7	0	0	0	0	477	
8	0	0	0	0	444	
9	0	0	0	0	497	
10	0	0	0	0	445	
11	0	0	0	0	588	
12	0	0	0	0	472	
13	0	0	0	0	592	
14	0	0	0	0	499	
15	0	0	0	0	606	
0	0	0	0	0	454	
1	0	0	0	0	630	
2	0	0	0	0	496	
3	0	0	0	0	508	
4	0	0	0	0	536	
5	0	0	0	0	606	
6	0	0	0	0	391	
7	0	0	0	0	589	
8	0	0	0	0	616	
9	0	0	0	0	530	
10	0	0	0	0	479	
11	0	0	0	0	548	
12	0	0	0	0	495	
13	0	0	0	0	560	
14	0	0	0	0	487	
15	0	0	0	0	556	
0	0	0	0	0	466	
1	0	0	0	0	566	
2	0	0	0	0	546	
3	0	0	0	0	556	
4	0	0	0	0	517	
5	0	0	0	0	583	
6	0	0	0	0	639	
7	0	0	0	0	582	
8	0	0	0	0	498	
9	0	0	0	0	592	
10	0	0	0	0	483	
11	0	0	0	0	568	
12	0	0	0	0	510	
13	0	0	0	0	584	
14	0	0	0	0	489	
15	0	0	0	0	542	
0	0	0	0	0	451	
1	0	0	0	0	596	
2	0	0	0	0	480	
3	0	0	0	0	571	
4	0	0	0	0	512	
5	0	0	0	0	597	
6	0	0	0	0	468	
7	0	0	0	0	583	
8	0	0	0	0	517	
9	0	0	0	0	595	
10	0	0	0	0	501	
11	0	0	0	0	584	
12	0	0	0	0	515	
13	0	0	0	0	567	
14	0	0	0	0	506	
15	0	0	0	0	586	
0	0	0	0	0	520	
1	0	0	0	0	582	
2	0	0	0	0	486	
3	0	0	0	0	623	
4	0	0	0	0	486	
5	0	0	0	0	592	
6	0	0	0	0	431	
7	0	0	0	0	591	
8	0	0	0	0	484	
9	0	0	0	0	586	
10	0	0	0	0	493	
11	0	0	0	0	589	
12	0	0	0	0	519	
13	0	0	0	0	621	
14	0	0	0	0	455	
15	0	0	0	0	594	
0	0	0	0	0	494	
1	0	0	0	0	575	
2	0	0	0	0	485	
3	0	0	0	0	584	
4	0	0	0	0	486	
5	0	0	0	0	563	
6	0	0	0	0	519	
7	0	0	0	0	590	
8	0	0	0	0	451	
9	0	0	0	0	598	
10	0	0	0	0	506	
11	0	0	0	0	578	
12	0	0	0	0	504	
13	0	0	0	0	600	
14	0	0	0	0	497	
15	0	0	0	0	589	
0	0	0	0	0	470	
1	0	0	0	0	584	
2	0	0	0	0	514	
3	0	0	0	0	608	
4	0	0	0	0	499	
5	0	0	0	0	569	
6	0	0	0	0	492	
7	0	0	0	0	554	
8	0	0	0	0	488	
9	0	0	0	0	575	
10	0	0	0	0	512	
11	0	0	0	0	580	
12	0	0	0	0	495	
13	0	0	0	0	566	
14	0	0	0	0	510	
15	0	0	0	0	595	
0	0	0	0	0	494	
1	0	0	0	0	556	
2	0	0	0	0	494	
3	0	0	0	0	596	
4	0	0	0	0	495	
5	0	0	0	0	571	
6	0	0	0	0	482	
7	0	0	0	0	617	
8	0	0	0	0	469	
9	0	0	0	0	591	
10	0	0	0	0	502	
11	0	0	0	0	604	
12	0	0	0	0	455	
13	0	0	0	0	599	
14	0	0	0	0	514	
15	0	0	0	0	578	
0	0	0	0	0	493	
1	0	0	0	0	609	
2	0	0	0	0	483	
3	0	0	0	0	604	
4	0	0	0	0	480	
5	0	0	0	0	558	
6	0	0	0	0	503	
7	0	0	0	0	592	
8	0	0	0	0	539	
9	0	0	0	0	580	
10	0	0	0	0	505	
11	0	0	0	0	588	
12	0	0	0	0	511	
13	0	0	0	0	584	
14	0	0	0	0	492	
15	0	0	0	0	594	
0	0	0	0	0	487	
1	0	0	0	0	603	
2	0	0	0	0	477	
3	0	0	0	0	605	
4	0	0	0	0	468	
5	0	0	0	0	584	
6	0	0	0	0	499	
7	0	0	0	0	605	
8	0	0	0	0	474	
9	0	0	0	0	618	
10	0	0	0	0	471	
11	0	0	0	0	614	
12	0	0	0	0	470	
13	0	0	0	0	593	
14	0	0	0	0	502	
15	0	0	0	0	587	
0	0	0	0	0	487	
1	0	0	0	0	608	
2	0	0	0	0	477	
3	0	0	0	0	596	
4	0	0	0	0	488	
5	0	0	0	0	608	
6	0	0	0	0	504	
7	0	0	0	0	584	
8	0	0	0	0	489	
9	0	0	0	0	590	
10	0	0	0	0	497	
11	0	0	0	0	613	
12	0	0	0	0	468	
13	0	0	0	0	616	
14	0	0	0	0	487	
15	0	0	0	0	621	
0	0	0	0	0	478	
1	0	0	0	0	609	
2	0	0	0	0	479	
3	0	0	0	0	598	
4	0	0	0	0	486	
5	0	0	0	0	607	
6	0	0	0	0	472	
7	0	0	0	0	611	
8	0	0	0	0	501	
9	0	0	0	0	614	
10	0	0	0	0	478	
11	0	0	0	0	607	
12	0	0	0	0	495	
13	0	0	0	0	610	
14	0	0	0	0	478	
15	0	0	0	0	609	
0	0	0	0	0	454	
1	0	0	0	0	594	
2	0	0	0	0	483	
3	0	0	0	0	615	
4	0	0	0	0	497	
5	0	0	0	0	583	
6	0	0	0	0	488	
7	0	0	0	0	611	
8	0	0	0	0	521	
9	0	0	0	0	624	
10	0	0	0	0	480	
11	0	0	0	0	616	
12	0	0	0	0	513	
13	0	0	0	0	585	
14	0	0	0	0	536	
15	0	0	0	0	551	
0	0	0	0	0	492	
1	0	0	0	0	615	
2	0	0	0	0	516	
3	0	0	0	0	614	
4	0	0	0	0	458	
5	0	0	0	0	619	
6	0	0	0	0	521	
7	0	0	0	0	595	
8	0	0	0	0	472	
9	0	0	0	0	611	
10	0	0	0	0	491	
11	0	0	0	0	611	
12	0	0	0	0	534	
13	0	0	0	0	600	
14	0	0	0	0	488	
15	0	0	0	0	592	
0	0	0	0	0	499	
1	0	0	0	0	554	
2	0	0	0	0	550	
3	0	0	0	0	566	
4	0	0	0	0	492	
5	0	0	0	0	575	
6	0	0	0	0	516	
7	0	0	0	0	667	
8	0	0	0	0	485	
9	0	0	0	0	572	
10	0	0	0	0	527	
11	0	0	0	0	615	
12	0	0	0	0	516	
13	0	0	0	0	562	
14	0	0	0	0	515	
15	0	0	0	0	594	
0	0	0	0	0	499	
1	0	0	0	0	544	
2	0	0	0	0	520	
3	0	0	0	0	570	
4	0	0	0	0	484	
5	0	0	0	0	606	
6	0	0	0	0	496	
7	0	0	0	0	622	
8	0	0	0	0	511	
9	0	0	0	0	557	
10	0	0	0	0	509	
11	0	0	0	0	595	
12	0	0	0	0	503	
13	0	0	0	0	651	
14	0	0	0	0	456	
15	0	0	0	0	571	
0	0	0	0	0	536	
1	0	0	0	0	575	
2	0	0	0	0	501	
3	0	0	0	0	575	
4	0	0	0	0	397	
5	0	0	0	0	518	
6	0	0	0	0	465	
7	0	0	0	0	687	
8	0	0	0	0	470	
9	0	0	0	0	592	
10	0	0	0	0	496	
11	0	0	0	0	570	
12	0	0	0	0	487	
13	0	0	0	0	526	
14	0	0	0	0	453	
15	0	0	0	0	600	
0	0	0	0	0	444	
1	0	0	0	0	593	
2	0	0	0	0	506	
3	0	0	0	0	537	
4	0	0	0	0	441	
5	0	0	0	0	569	
6	0	0	0	0	446	
7	0	0	0	0	539	
8	0	0	0	0	495	
9	0	0	0	0	523	
10	0	0	0	0	549	
11	0	0	0	0	518	
12	0	0	0	0	444	
13	0	0	0	0	523	
14	0	0	0	0	526	
15	0	0	0	0	598	
0	0	0	0	0	464	
1	0	0	0	0	515	
2	0	0	0	0	424	
3	0	0	0	0	558	
4	0	0	0	0	540	
5	0	0	0	0	583	
6	0	0	0	0	517	
7	0	0	0	0	608	
8	0	0	0	0	451	
9	0	0	0	0	552	
10	0	0	0	0	445	
11	0	0	0	0	556	
12	0	0	0	0	518	
13	0	0	0	0	511	
14	0	0	0	0	530	
15	0	0	0	0	529	
0	0	0	0	0	474	
1	0	0	0	0	575	
2	0	0	0	0	555	
3	0	0	0	0	601	
4	0	0	0	0	536	
5	0	0	0	0	556	
6	0	0	0	0	491	
7	0	0	0	0	592	
8	0	0	0	0	440	
9	0	0	0	0	475	
10	0	0	0	0	480	
11	0	0	0	0	503	
12	0	0	0	0	531	
13	0	0	0	0	567	
14	0	0	0	0	628	
15	0	0	0	0	481	
0	0	0	0	0	507	
1	0	0	0	0	549	
2	0	0	0	0	491	
3	0	0	0	0	567	
4	0	0	0	0	615	
5	0	0	0	0	508	
6	0	0	0	0	469	
7	0	0	0	0	564	
8	0	0	0	0	455	
9	0	0	0	0	736	
10	0	0	0	0	421	
11	0	0	0	0	400	
12	0	0	0	0	559	
13	0	0	0	0	543	
14	0	0	0	0	357	
15	0	0	0	0	596	
0	0	0	0	0	624	
1	0	0	0	0	473	
2	0	0	0	0	562	
3	0	0	0	0	697	
4	0	0	0	0	417	
5	0	0	0	0	616	
6	0	0	0	0	486	
7	0	0	0	0	503	
8	0	0	0	0	342	
9	0	0	0	0	738	
10	0	0	0	0	421	
11	0	0	0	0	587	
12	0	0	0	0	650	
13	0	0	0	0	407	
14	0	0	0	0	346	
15	0	0	0	0	399	
0	0	0	0	0	533	
1	0	0	0	0	557	
2	0	0	0	0	543	
3	0	0	0	0	698	
4	0	0	0	0	530	
5	0	0	0	0	553	
6	0	0	0	0	403	
7	0	0	0	0	585	
8	0	0	0	0	524	
9	0	0	0	0	542	
10	0	0	0	0	658	
11	0	0	0	0	607	
12	0	0	0	0	636	
13	0	0	0	0	500	
14	0	0	0	0	542	
15	0	0	0	0	508	
0	0	0	0	0	504	
1	0	0	0	0	543	
2	0	0	0	0	482	
3	0	0	0	0	643	
4	0	0	0	0	516	
5	0	0	0	0	563	
6	0	0	0	0	510	
7	0	0	0	0	538	
8	0	0	0	0	512	
9	0	0	0	0	542	
10	0	0	0	0	391	
11	0	0	0	0	587	
12	0	0	0	0	501	
13	0	0	0	0	630	
14	0	0	0	0	472	
15	0	0	0	0	548	
0	0	0	0	0	481	
1	0	0	0	0	547	
2	0	0	0	0	490	
3	0	0	0	0	538	
4	0	0	0	0	525	
5	0	0	0	0	504	
6	0	0	0	0	484	
7	0	0	0	0	563	
8	0	0	0	0	503	
9	0	0	0	0	583	
10	0	0	0	0	453	
11	0	0	0	0	527	
12	0	0	0	0	493	
13	0	0	0	0	571	
14	0	0	0	0	495	
15	0	0	0	0	582	
0	0	0	0	0	452	
1	0	0	0	0	595	
2	0	0	0	0	498	
3	0	0	0	0	567	
4	0	0	0	0	462	
5	0	0	0	0	575	
6	0	0	0	0	473	
7	0	0	0	0	572	
8	0	0	0	0	502	
9	0	0	0	0	487	
10	0	0	0	0	504	
11	0	0	0	0	549	
12	0	0	0	0	479	
13	0	0	0	0	533	
14	0	0	0	0	494	
15	0	0	0	0	557	
0	0	0	0	0	464	
1	0	0	0	0	561	
2	0	0	0	0	494	
3	0	0	0	0	562	
4	0	0	0	0	487	
5	0	0	0	0	560	
6	0	0	0	0	509	
7	0	0	0	0	559	
8	0	0	0	0	449	
9	0	0	0	0	599	
10	0	0	0	0	488	
11	0	0	0	0	583	
12	0	0	0	0	480	
13	0	0	0	0	559	
14	0	0	0	0	492	
15	0	0	0	0	568	
0	0	0	0	0	489	
1	0	0	0	0	605	
2	0	0	0	0	458	
3	0	0	0	0	586	
4	0	0	0	0	504	
5	0	0	0	0	570	
6	0	0	0	0	493	
7	0	0	0	0	561	
8	0	0	0	0	488	
9	0	0	0	0	573	
10	0	0	0	0	451	
11	0	0	0	0	573	
12	0	0	0	0	492	
13	0	0	0	0	565	
14	0	0	0	0	499	
15	0	0	0	0	557	
0	0	0	0	0	480	
1	0	0	0	0	582	
2	0	0	0	0	489	
3	0	0	0	0	574	
4	0	0	0	0	489	
5	0	0	0	0	565	
6	0	0	0	0	475	
7	0	0	0	0	571	
8	0	0	0	0	480	
9	0	0	0	0	579	
10	0	0	0	0	459	
11	0	0	0	0	583	
12	0	0	0	0	476	
13	0	0	0	0	575	
14	0	0	0	0	508	
15	0	0	0	0	569	
0	0	0	0	0	473	
1	0	0	0	0	582	
2	0	0	0	0	450	
3	0	0	0	0	574	
4	0	0	0	0	482	
5	0	0	0	0	570	
6	0	0	0	0	487	
7	0	0	0	0	589	
8	0	0	0	0	469	
9	0	0	0	0	586	
10	0	0	0	0	446	
11	0	0	0	0	575	
12	0	0	0	0	498	
13	0	0	0	0	579	
14	0	0	0	0	517	
15	0	0	0	0	548	
0	0	0	0	0	469	
1	0	0	0	0	547	
2	0	0	0	0	478	
3	0	0	0	0	578	
4	0	0	0	0	449	
5	0	0	0	0	590	
6	0	0	0	0	467	
7	0	0	0	0	582	
8	0	0	0	0	487	
9	0	0	0	0	590	
10	0	0	0	0	487	
11	0	0	0	0	575	
12	0	0	0	0	472	
13	0	0	0	0	585	
14	0	0	0	0	423	
15	0	0	0	0	602	
0	0	0	0	0	438	
1	0	0	0	0	586	
2	0	0	0	0	486	
3	0	0	0	0	567	
4	0	0	0	0	470	
5	0	0	0	0	586	
6	0	0	0	0	465	
7	0	0	0	0	497	
8	0	0	0	0	492	
9	0	0	0	0	614	
10	0	0	0	0	436	
11	0	0	0	0	587	
12	0	0	0	0	488	
13	0	0	0	0	584	
14	0	0	0	0	481	
15	0	0	0	0	583	
0	0	0	0	0	511	
1	0	0	0	0	544	
2	0	0	0	0	482	
3	0	0	0	0	578	
4	0	0	0	0	470	
5	0	0	0	0	583	
6	0	0	0	0	463	
7	0	0	0	0	558	
8	0	0	0	0	463	
9	0	0	0	0	569	
10	0	0	0	0	468	
11	0	0	0	0	600	
12	0	0	0	0	502	
13	0	0	0	0	600	
14	0	0	0	0	440	
15	0	0	0	0	592	
0	0	0	0	0	468	
1	0	0	0	0	582	
2	0	0	0	0	458	
3	0	0	0	0	576	
4	0	0	0	0	473	
5	0	0	0	0	579	
6	0	0	0	0	451	
7	0	0	0	0	580	
8	0	0	0	0	479	
9	0	0	0	0	593	
10	0	0	0	0	460	
11	0	0	0	0	564	
12	0	0	0	0	427	
13	0	0	0	0	580	
14	0	0	0	0	482	
15	0	0	0	0	572	
0	0	0	0	0	472	
1	0	0	0	0	591	
2	0	0	0	0	455	
3	0	0	0	0	550	
4	0	0	0	0	466	
5	0	0	0	0	594	
6	0	0	0	0	456	
7	0	0	0	0	551	
8	0	0	0	0	483	
9	0	0	0	0	538	
10	0	0	0	0	502	
11	0	0	0	0	528	
12	0	0	0	0	473	
13	0	0	0	0	557	
14	0	0	0	0	502	
15	0	0	0	0	537	
0	0	0	0	0	467	
1	0	0	0	0	598	
2	0	0	0	0	226	
3	0	0	0	0	293	
4	0	0	0	0	2	
5	0	0	0	0	777	
6	0	0	0	0	498	
7	0	0	0	0	767	
8	0	0	0	0	568	
9	0	0	0	0	773	
10	0	0	0	0	444	
11	0	0	0	0	591	
12	0	0	0	0	294	
13	0	0	0	0	532	
14	0	0	0	0	364	
15	0	0	0	0	620	
0	0	0	0	0	480	
1	0	0	0	0	748	
2	0	0	0	0	503	
3	0	0	0	0	695	
4	0	0	0	0	508	
5	0	0	0	0	665	
6	0	0	0	0	463	
7	0	0	0	0	580	
8	0	0	0	0	459	
9	0	0	0	0	637	
10	0	0	0	0	439	
11	0	0	0	0	609	
12	0	0	0	0	463	
13	0	0	0	0	523	
14	0	0	0	0	487	
15	0	0	0	0	528	
0	0	0	0	0	483	
1	0	0	0	0	517	
2	0	0	0	0	460	
3	0	0	0	0	525	
4	0	0	0	0	465	
5	0	0	0	0	542	
6	0	0	0	0	475	
7	0	0	0	0	519	
8	0	0	0	0	493	
9	0	0	0	0	550	
10	0	0	0	0	451	
11	0	0	0	0	514	
12	0	0	0	0	481	
13	0	0	0	0	516	
14	0	0	0	0	457	
15	0	0	0	0	521	
0	0	0	0	0	473	
1	0	0	0	0	498	
2	0	0	0	0	472	
3	0	0	0	0	517	
4	0	0	0	0	450	
5	0	0	0	0	524	
6	0	0	0	0	462	
7	0	0	0	0	522	
8	0	0	0	0	497	
9	0	0	0	0	546	
10	0	0	0	0	468	
11	0	0	0	0	546	
12	0	0	0	0	441	
13	0	0	0	0	536	
14	0	0	0	0	518	
15	0	0	0	0	505	
0	0	0	0	0	510	
1	0	0	0	0	491	
2	0	0	0	0	519	
3	0	0	0	0	470	
4	0	0	0	0	511	
5	0	0	0	0	526	
6	0	0	0	0	473	
7	0	0	0	0	517	
8	0	0	0	0	511	
9	0	0	0	0	471	
10	0	0	0	0	510	
11	0	0	0	0	484	
12	0	0	0	0	504	
13	0	0	0	0	461	
14	0	0	0	0	542	
15	0	0	0	0	575	
0	0	0	0	0	614	
1	0	0	0	0	629	
2	0	0	0	0	552	
3	0	0	0	0	548	
4	0	0	0	0	453	
5	0	0	0	0	489	
6	0	0	0	0	442	
7	0	0	0	0	508	
8	0	0	0	0	484	
9	0	0	0	0	492	
10	0	0	0	0	554	
11	0	0	0	0	586	
12	0	0	0	0	443	
13	0	0	0	0	471	
14	0	0	0	0	406	
15	0	0	0	0	492	
0	0	0	0	0	448	
1	0	0	0	0	500	
2	0	0	0	0	460	
3	0	0	0	0	518	
4	0	0	0	0	537	
5	0	0	0	0	483	
6	0	0	0	0	463	
7	0	0	0	0	547	
8	0	0	0	0	495	
9	0	0	0	0	514	
10	0	0	0	0	522	
11	0	0	0	0	544	
12	0	0	0	0	584	
13	0	0	0	0	549	
14	0	0	0	0	537	
15	0	0	0	0	454	
0	0	0	0	0	551	
1	0	0	0	0	532	
2	0	0	0	0	472	
3	0	0	0	0	504	
4	0	0	0	0	533	
5	0	0	0	0	511	
6	0	0	0	0	483	
7	0	0	0	0	537	
8	0	0	0	0	500	
9	0	0	0	0	540	
10	0	0	0	0	481	
11	0	0	0	0	495	
12	0	0	0	0	515	
13	0	0	0	0	545	
14	0	0	0	0	495	
15	0	0	0	0	541	
0	0	0	0	0	507	
1	0	0	0	0	543	
2	0	0	0	0	513	
3	0	0	0	0	474	
4	0	0	0	0	468	
5	0	0	0	0	563	
6	0	0	0	0	482	
7	0	0	0	0	487	
8	0	0	0	0	479	
9	0	0	0	0	551	
10	0	0	0	0	474	
11	0	0	0	0	554	
12	0	0	0	0	466	
13	0	0	0	0	519	
14	0	0	0	0	502	
15	0	0	0	0	556	
0	0	0	0	0	417	
1	0	0	0	0	586	
2	0	0	0	0	490	
3	0	0	0	0	534	
4	0	0	0	0	503	
5	0	0	0	0	508	
6	0	0	0	0	511	
7	0	0	0	0	543	
8	0	0	0	0	465	
9	0	0	0	0	574	
10	0	0	0	0	504	
11	0	0	0	0	559	
12	0	0	0	0	458	
13	0	0	0	0	496	
14	0	0	0	0	510	
15	0	0	0	0	529	
0	0	0	0	0	459	
1	0	0	0	0	563	
2	0	0	0	0	484	
3	0	0	0	0	492	
4	0	0	0	0	541	
5	0	0	0	0	574	
6	0	0	0	0	461	
7	0	0	0	0	578	
8	0	0	0	0	419	
9	0	0	0	0	600	
10	0	0	0	0	512	
11	0	0	0	0	489	
12	0	0	0	0	515	
13	0	0	0	0	587	
14	0	0	0	0	435	
15	0	0	0	0	556	
0	0	0	0	0	441	
1	0	0	0	0	622	
2	0	0	0	0	454	
3	0	0	0	0	580	
4	0	0	0	0	519	
5	0	0	0	0	470	
6	0	0	0	0	496	
7	0	0	0	0	509	
8	0	0	0	0	552	
9	0	0	0	0	486	
10	0	0	0	0	543	
11	0	0	0	0	398	
12	0	0	0	0	512	
13	0	0	0	0	468	
14	0	0	0	0	554	
15	0	0	0	0	527	
0	0	0	0	0	491	
1	0	0	0	0	480	
2	0	0	0	0	569	
3	0	0	0	0	487	
4	0	0	0	0	470	
5	0	0	0	0	565	
6	0	0	0	0	445	
7	0	0	0	0	451	
8	0	0	0	0	451	
9	0	0	0	0	562	
10	0	0	0	0	566	
11	0	0	0	0	545	
12	0	0	0	0	571	
13	0	0	0	0	509	
14	0	0	0	0	542	
15	0	0	0	0	531	
0	0	0	0	0	468	
1	0	0	0	0	455	
2	0	0	0	0	495	
3	0	0	0	0	498	
4	0	0	0	0	518	
5	0	0	0	0	554	
6	0	0	0	0	364	
7	0	0	0	0	605	
8	0	0	0	0	471	
9	0	0	0	0	610	
10	0	0	0	0	464	
11	0	0	0	0	541	
12	0	0	0	0	376	
13	0	0	0	0	404	
14	0	0	0	0	457	
15	0	0	0	0	440	
0	0	0	0	0	604	
1	0	0	0	0	510	
2	0	0	0	0	616	
3	0	0	0	0	539	
4	0	0	0	0	415	
5	0	0	0	0	663	
6	0	0	0	0	383	
7	0	0	0	0	666	
8	0	0	0	0	431	
9	0	0	0	0	560	
10	0	0	0	0	321	
11	0	0	0	0	495	
12	0	0	0	0	610	
13	0	0	0	0	591	
14	0	0	0	0	485	
15	0	0	0	0	513	
0	0	0	0	0	563	
1	0	0	0	0	542	
2	0	0	0	0	694	
3	0	0	0	0	467	
4	0	0	0	0	476	
5	0	0	0	0	355	
6	0	0	0	0	488	
7	0	0	0	0	611	
8	0	0	0	0	498	
9	0	0	0	0	664	
10	0	0	0	0	452	
11	0	0	0	0	616	
12	0	0	0	0	437	
13	0	0	0	0	510	
14	0	0	0	0	609	
15	0	0	0	0	436	
0	0	0	0	0	574	
1	0	0	0	0	595	
2	0	0	0	0	500	
3	0	0	0	0	556	
4	0	0	0	0	361	
5	0	0	0	0	386	
6	0	0	0	0	569	
7	0	0	0	0	751	
8	0	0	0	0	471	
9	0	0	0	0	571	
10	0	0	0	0	514	
11	0	0	0	0	489	
12	0	0	0	0	458	
13	0	0	0	0	622	
14	0	0	0	0	484	
15	0	0	0	0	424	
0	0	0	0	0	633	
1	0	0	0	0	525	
2	0	0	0	0	278	
3	0	0	0	0	724	
4	0	0	0	0	329	
5	0	0	0	0	672	
6	0	0	0	0	340	
7	0	0	0	0	720	
8	0	0	0	0	449	
9	0	0	0	0	574	
10	0	0	0	0	386	
11	0	0	0	0	519	
12	0	0	0	0	520	
13	0	0	0	0	665	
14	0	0	0	0	620	
15	0	0	0	0	353	
0	0	0	0	0	473	
1	0	0	0	0	571	
2	0	0	0	0	467	
3	0	0	0	0	491	
4	0	0	0	0	539	
5	0	0	0	0	458	
6	0	0	0	0	489	
7	0	0	0	0	630	
8	0	0	0	0	497	
9	0	0	0	0	636	
10	0	0	0	0	328	
11	0	0	0	0	528	
12	0	0	0	0	381	
13	0	0	0	0	422	
14	0	0	0	0	507	
15	0	0	0	0	556	
0	0	0	0	0	548	
1	0	0	0	0	604	
2	0	0	0	0	451	
3	0	0	0	0	545	
4	0	0	0	0	420	
5	0	0	0	0	551	
6	0	0	0	0	387	
7	0	0	0	0	544	
8	0	0	0	0	439	
9	0	0	0	0	591	
10	0	0	0	0	484	
11	0	0	0	0	556	
12	0	0	0	0	470	
13	0	0	0	0	604	
14	0	0	0	0	457	
15	0	0	0	0	575	
0	0	0	0	0	464	
1	0	0	0	0	576	
2	0	0	0	0	441	
3	0	0	0	0	612	
4	0	0	0	0	489	
5	0	0	0	0	617	
6	0	0	0	0	440	
7	0	0	0	0	572	
8	0	0	0	0	464	
9	0	0	0	0	594	
10	0	0	0	0	454	
11	0	0	0	0	679	
12	0	0	0	0	471	
13	0	0	0	0	593	
14	0	0	0	0	446	
15	0	0	0	0	521	
0	0	0	0	0	582	
1	0	0	0	0	550	
2	0	0	0	0	445	
3	0	0	0	0	541	
4	0	0	0	0	465	
5	0	0	0	0	568	
6	0	0	0	0	526	
7	0	0	0	0	557	
8	0	0	0	0	472	
9	0	0	0	0	546	
10	0	0	0	0	466	
11	0	0	0	0	554	
12	0	0	0	0	464	
13	0	0	0	0	574	
14	0	0	0	0	495	
15	0	0	0	0	572	
0	0	0	0	0	475	
1	0	0	0	0	583	
2	0	0	0	0	488	
3	0	0	0	0	593	
4	0	0	0	0	478	
5	0	0	0	0	566	
6	0	0	0	0	458	
7	0	0	0	0	581	
8	0	0	0	0	433	
9	0	0	0	0	547	
10	0	0	0	0	435	
11	0	0	0	0	573	
12	0	0	0	0	441	
13	0	0	0	0	563	
14	0	0	0	0	454	
15	0	0	0	0	565	
0	0	0	0	0	437	
1	0	0	0	0	573	
2	0	0	0	0	464	
3	0	0	0	0	554	
4	0	0	0	0	464	
5	0	0	0	0	555	
6	0	0	0	0	448	
7	0	0	0	0	577	
8	0	0	0	0	449	
9	0	0	0	0	566	
10	0	0	0	0	454	
11	0	0	0	0	557	
12	0	0	0	0	449	
13	0	0	0	0	573	
14	0	0	0	0	437	
15	0	0	0	0	582	
0	0	0	0	0	437	
1	0	0	0	0	579	
2	0	0	0	0	441	
3	0	0	0	0	585	
4	0	0	0	0	460	
5	0	0	0	0	571	
6	0	0	0	0	450	
7	0	0	0	0	570	
8	0	0	0	0	446	
9	0	0	0	0	566	
10	0	0	0	0	440	
11	0	0	0	0	583	
12	0	0	0	0	427	
13	0	0	0	0	578	
14	0	0	0	0	416	
15	0	0	0	0	576	
0	0	0	0	0	430	
1	0	0	0	0	583	
2	0	0	0	0	453	
3	0	0	0	0	551	
4	0	0	0	0	478	
5	0	0	0	0	557	
6	0	0	0	0	438	
7	0	0	0	0	587	
8	0	0	0	0	426	
9	0	0	0	0	576	
10	0	0	0	0	415	
11	0	0	0	0	546	
12	0	0	0	0	454	
13	0	0	0	0	562	
14	0	0	0	0	404	
15	0	0	0	0	614	
0	0	0	0	0	440	
1	0	0	0	0	588	
2	0	0	0	0	437	
3	0	0	0	0	558	
4	0	0	0	0	460	
5	0	0	0	0	556	
6	0	0	0	0	442	
7	0	0	0	0	572	
8	0	0	0	0	459	
9	0	0	0	0	557	
10	0	0	0	0	460	
11	0	0	0	0	597	
12	0	0	0	0	423	
13	0	0	0	0	571	
14	0	0	0	0	435	
15	0	0	0	0	461	
0	0	0	0	0	472	
1	0	0	0	0	585	
2	0	0	0	0	428	
3	0	0	0	0	577	
4	0	0	0	0	439	
5	0	0	0	0	553	
6	0	0	0	0	464	
7	0	0	0	0	537	
8	0	0	0	0	445	
9	0	0	0	0	563	
10	0	0	0	0	446	
11	0	0	0	0	564	
12	0	0	0	0	423	
13	0	0	0	0	555	
14	0	0	0	0	459	
15	0	0	0	0	536	
0	0	0	0	0	442	
1	0	0	0	0	573	
2	0	0	0	0	447	
3	0	0	0	0	563	
4	0	0	0	0	451	
5	0	0	0	0	552	
6	0	0	0	0	449	
7	0	0	0	0	568	
8	0	0	0	0	454	
9	0	0	0	0	589	
10	0	0	0	0	455	
11	0	0	0	0	533	
12	0	0	0	0	428	
13	0	0	0	0	575	
14	0	0	0	0	422	
15	0	0	0	0	522	
0	0	0	0	0	445	
1	0	0	0	0	573	
2	0	0	0	0	476	
3	0	0	0	0	548	
4	0	0	0	0	368	
5	0	0	0	0	561	
6	0	0	0	0	442	
7	0	0	0	0	571	
8	0	0	0	0	410	
9	0	0	0	0	595	
10	0	0	0	0	451	
11	0	0	0	0	608	
12	0	0	0	0	399	
13	0	0	0	0	580	
14	0	0	0	0	435	
15	0	0	0	0	528	
0	0	0	0	0	434	
1	0	0	0	0	590	
2	0	0	0	0	374	
3	0	0	0	0	586	
4	0	0	0	0	427	
5	0	0	0	0	547	
6	0	0	0	0	457	
7	0	0	0	0	593	
8	0	0	0	0	461	
9	0	0	0	0	558	
10	0	0	0	0	431	
11	0	0	0	0	562	
12	0	0	0	0	471	
13	0	0	0	0	523	
14	0	0	0	0	403	
15	0	0	0	0	577	
0	0	0	0	0	469	
1	0	0	0	0	564	
2	0	0	0	0	382	
3	0	0	0	0	563	
4	0	0	0	0	417	
5	0	0	0	0	523	
6	0	0	0	0	431	
7	0	0	0	0	598	
8	0	0	0	0	475	
9	0	0	0	0	642	
10	0	0	0	0	396	
11	0	0	0	0	556	
12	0	0	0	0	415	
13	0	0	0	0	522	
14	0	0	0	0	455	
15	0	0	0	0	560	
0	0	0	0	0	391	
1	0	0	0	0	514	
2	0	0	0	0	489	
3	0	0	0	0	588	
4	0	0	0	0	397	
5	0	0	0	0	642	
6	0	0	0	0	418	
7	0	0	0	0	601	
8	0	0	0	0	433	
9	0	0	0	0	523	
10	0	0	0	0	499	
11	0	0	0	0	546	
12	0	0	0	0	430	
13	0	0	0	0	574	
14	0	0	0	0	433	
15	0	0	0	0	485	
0	0	0	0	0	511	
1	0	0	0	0	495	
2	0	0	0	0	481	
3	0	0	0	0	496	
4	0	0	0	0	506	
5	0	0	0	0	575	
6	0	0	0	0	315	
7	0	0	0	0	519	
8	0	0	0	0	376	
9	0	0	0	0	467	
10	0	0	0	0	653	
11	0	0	0	0	430	
12	0	0	0	0	569	
13	0	0	0	0	683	
14	0	0	0	0	360	
15	0	0	0	0	518	
0	0	0	0	0	480	
1	0	0	0	0	495	
2	0	0	0	0	441	
3	0	0	0	0	638	
4	0	0	0	0	334	
5	0	0	0	0	529	
6	0	0	0	0	417	
7	0	0	0	0	560	
8	0	0	0	0	387	
9	0	0	0	0	502	
10	0	0	0	0	568	
11	0	0	0	0	636	
12	0	0	0	0	359	
13	0	0	0	0	371	
14	0	0	0	0	535	
15	0	0	0	0	219	
0	0	0	0	0	806	
1	0	0	0	0	332	
2	0	0	0	0	517	
3	0	0	0	0	467	
4	0	0	0	0	509	
5	0	0	0	0	553	
6	0	0	0	0	533	
7	0	0	0	0	883	
8	0	0	0	0	481	
9	0	0	0	0	527	
10	0	0	0	0	445	
11	0	0	0	0	404	
12	0	0	0	0	501	
13	0	0	0	0	238	
14	0	0	0	0	338	
15	0	0	0	0	563	
0	0	0	0	0	360	
1	0	0	0	0	657	
2	0	0	0	0	688	
3	0	0	0	0	768	
4	0	0	0	0	407	
5	0	0	0	0	592	
6	0	0	0	0	465	
7	0	0	0	0	772	
8	0	0	0	0	355	
9	0	0	0	0	719	
10	0	0	0	0	404	
11	0	0	0	0	373	
12	0	0	0	0	370	
13	0	0	0	0	487	
14	0	0	0	0	735	
15	0	0	0	0	473	
0	0	0	0	0	1022	
1	0	0	0	0	660	
2	0	0	0	0	177	
3	0	0	0	0	547	
4	0	0	0	0	264	
5	0	0	0	0	703	
6	0	0	0	0	262	
7	0	0	0	0	496	
8	0	0	0	0	546	
9	0	0	0	0	378	
10	0	0	0	0	452	
11	0	0	0	0	394	
12	0	0	0	0	450	
13	0	0	0	0	408	
14	0	0	0	0	620	
15	0	0	0	0	430	
0	0	0	0	0	265	
1	0	0	0	0	481	
2	0	0	0	0	628	
3	0	0	0	0	497	
4	0	0	0	0	491	
5	0	0	0	0	435	
6	0	0	0	0	382	
7	0	0	0	0	806	
8	0	0	0	0	660	
9	0	0	0	0	505	
10	0	0	0	0	278	
11	0	0	0	0	255	
12	0	0	0	0	536	
13	0	0	0	0	611	
14	0	0	0	0	567	
15	0	0	0	0	534	
0	0	0	0	0	725	
1	0	0	0	0	807	
2	0	0	0	0	1022	
3	0	0	0	0	568	
4	0	0	0	0	248	
5	0	0	0	0	633	
6	0	0	0	0	563	
7	0	0	0	0	508	
8	0	0	0	0	616	
9	0	0	0	0	286	
10	0	0	0	0	488	
11	0	0	0	0	368	
12	0	0	0	0	96	
13	0	0	0	0	149	
14	0	0	0	0	695	
15	0	0	0	0	545	
0	0	0	0	0	576	
1	0	0	0	0	502	
2	0	0	0	0	327	
3	0	0	0	0	303	
4	0	0	0	0	284	
5	0	0	0	0	608	
6	0	0	0	0	399	
7	0	0	0	0	577	
8	0	0	0	0	265	
9	0	0	0	0	556	
10	0	0	0	0	442	
11	0	0	0	0	784	
12	0	0	0	0	281	
13	0	0	0	0	646	
14	0	0	0	0	380	
15	0	0	0	0	660	
0	0	0	0	0	479	
1	0	0	0	0	432	
2	0	0	0	0	603	
3	0	0	0	0	563	
4	0	0	0	0	377	
5	0	0	0	0	687	
6	0	0	0	0	452	
7	0	0	0	0	556	
8	0	0	0	0	276	
9	0	0	0	0	525	
10	0	0	0	0	382	
11	0	0	0	0	399	
12	0	0	0	0	392	
13	0	0	0	0	549	
14	0	0	0	0	415	
15	0	0	0	0	451	
0	0	0	0	0	476	
1	0	0	0	0	596	
2	0	0	0	0	421	
3	0	0	0	0	556	
4	0	0	0	0	507	
5	0	0	0	0	574	
6	0	0	0	0	463	
7	0	0	0	0	524	
8	0	0	0	0	517	
9	0	0	0	0	457	
10	0	0	0	0	371	
11	0	0	0	0	559	
12	0	0	0	0	403	
13	0	0	0	0	508	
14	0	0	0	0	393	
15	0	0	0	0	547	
0	0	0	0	0	444	
1	0	0	0	0	545	
2	0	0	0	0	436	
3	0	0	0	0	544	
4	0	0	0	0	427	
5	0	0	0	0	574	
6	0	0	0	0	403	
7	0	0	0	0	561	
8	0	0	0	0	445	
9	0	0	0	0	547	
10	0	0	0	0	422	
11	0	0	0	0	556	
12	0	0	0	0	441	
13	0	0	0	0	548	
14	0	0	0	0	436	
15	0	0	0	0	543	
0	0	0	0	0	445	
1	0	0	0	0	543	
2	0	0	0	0	427	
3	0	0	0	0	531	
4	0	0	0	0	439	
5	0	0	0	0	558	
6	0	0	0	0	442	
7	0	0	0	0	519	
8	0	0	0	0	450	
9	0	0	0	0	519	
10	0	0	0	0	417	
11	0	0	0	0	529	
12	0	0	0	0	438	
13	0	0	0	0	560	
14	0	0	0	0	423	
15	0	0	0	0	551	
0	0	0	0	0	430	
1	0	0	0	0	558	
2	0	0	0	0	433	
3	0	0	0	0	557	
4	0	0	0	0	446	
5	0	0	0	0	550	
6	0	0	0	0	390	
7	0	0	0	0	545	
8	0	0	0	0	420	
9	0	0	0	0	548	
10	0	0	0	0	422	
11	0	0	0	0	542	
12	0	0	0	0	412	
13	0	0	0	0	528	
14	0	0	0	0	423	
15	0	0	0	0	548	
0	0	0	0	0	411	
1	0	0	0	0	547	
2	0	0	0	0	411	
3	0	0	0	0	553	
4	0	0	0	0	411	
5	0	0	0	0	552	
6	0	0	0	0	402	
7	0	0	0	0	550	
8	0	0	0	0	423	
9	0	0	0	0	558	
10	0	0	0	0	408	
11	0	0	0	0	555	
12	0	0	0	0	399	
13	0	0	0	0	544	
14	0	0	0	0	414	
15	0	0	0	0	545	
0	0	0	0	0	398	
1	0	0	0	0	548	
2	0	0	0	0	388	
3	0	0	0	0	551	
4	0	0	0	0	391	
5	0	0	0	0	560	
6	0	0	0	0	402	
7	0	0	0	0	567	
8	0	0	0	0	382	
9	0	0	0	0	555	
10	0	0	0	0	415	
11	0	0	0	0	551	
12	0	0	0	0	442	
13	0	0	0	0	559	
14	0	0	0	0	410	
15	0	0	0	0	563	
0	0	0	0	0	401	
1	0	0	0	0	511	
2	0	0	0	0	407	
3	0	0	0	0	539	
4	0	0	0	0	430	
5	0	0	0	0	569	
6	0	0	0	0	398	
7	0	0	0	0	576	
8	0	0	0	0	400	
9	0	0	0	0	564	
10	0	0	0	0	400	
11	0	0	0	0	549	
12	0	0	0	0	388	
13	0	0	0	0	585	
14	0	0	0	0	407	
15	0	0	0	0	582	
0	0	0	0	0	399	
1	0	0	0	0	540	
2	0	0	0	0	406	
3	0	0	0	0	566	
4	0	0	0	0	391	
5	0	0	0	0	569	
6	0	0	0	0	396	
7	0	0	0	0	540	
8	0	0	0	0	391	
9	0	0	0	0	579	
10	0	0	0	0	390	
11	0	0	0	0	567	
12	0	0	0	0	409	
13	0	0	0	0	566	
14	0	0	0	0	398	
15	0	0	0	0	564	
0	0	0	0	0	398	
1	0	0	0	0	564	
2	0	0	0	0	406	
3	0	0	0	0	543	
4	0	0	0	0	386	
5	0	0	0	0	563	
6	0	0	0	0	408	
7	0	0	0	0	563	
8	0	0	0	0	404	
9	0	0	0	0	561	
10	0	0	0	0	430	
11	0	0	0	0	554	
12	0	0	0	0	413	
13	0	0	0	0	558	
14	0	0	0	0	423	
15	0	0	0	0	548	
0	0	0	0	0	400	
1	0	0	0	0	552	
2	0	0	0	0	401	
3	0	0	0	0	540	
4	0	0	0	0	412	
5	0	0	0	0	534	
6	0	0	0	0	430	
7	0	0	0	0	547	
8	0	0	0	0	401	
9	0	0	0	0	531	
10	0	0	0	0	434	
11	0	0	0	0	520	
12	0	0	0	0	416	
13	0	0	0	0	549	
14	0	0	0	0	439	
15	0	0	0	0	551	
0	0	0	0	0	408	
1	0	0	0	0	552	
2	0	0	0	0	419	
3	0	0	0	0	549	
4	0	0	0	0	416	
5	0	0	0	0	547	
6	0	0	0	0	429	
7	0	0	0	0	500	
8	0	0	0	0	421	
9	0	0	0	0	533	
10	0	0	0	0	420	
11	0	0	0	0	550	
12	0	0	0	0	444	
13	0	0	0	0	539	
