intervalos,canal1,canal2,canal3,canal4,canal5
0,0,0,0,0,528
1,0,0,0,0,512
2,0,0,0,0,491
3,0,0,0,0,477
4,0,0,0,0,471
5,0,0,0,0,463
6,0,0,0,0,459
7,0,0,0,0,457
8,0,0,0,0,459
9,0,0,0,0,464
10,0,0,0,0,465
11,0,0,0,0,469
12,0,0,0,0,475
13,0,0,0,0,477
14,0,0,0,0,480
15,0,0,0,0,483
0,0,0,0,0,483
1,0,0,0,0,484
2,0,0,0,0,484
3,0,0,0,0,488
4,0,0,0,0,490
5,0,0,0,0,489
6,0,0,0,0,487
7,0,0,0,0,486
8,0,0,0,0,485
9,0,0,0,0,488
10,0,0,0,0,492
11,0,0,0,0,491
12,0,0,0,0,491
13,0,0,0,0,489
14,0,0,0,0,490
15,0,0,0,0,491
0,0,0,0,0,491
1,0,0,0,0,492
2,0,0,0,0,492
3,0,0,0,0,494
4,0,0,0,0,495
5,0,0,0,0,495
6,0,0,0,0,498
7,0,0,0,0,496
8,0,0,0,0,497
9,0,0,0,0,492
10,0,0,0,0,492
11,0,0,0,0,496
12,0,0,0,0,496
13,0,0,0,0,497
14,0,0,0,0,498
15,0,0,0,0,500
0,0,0,0,0,497
1,0,0,0,0,498
2,0,0,0,0,496
3,0,0,0,0,500
4,0,0,0,0,502
5,0,0,0,0,499
6,0,0,0,0,506
7,0,0,0,0,510
8,0,0,0,0,510
9,0,0,0,0,512
10,0,0,0,0,507
11,0,0,0,0,499
12,0,0,0,0,499
13,0,0,0,0,499
14,0,0,0,0,496
15,0,0,0,0,497
0,0,0,0,0,499
1,0,0,0,0,500
2,0,0,0,0,503
3,0,0,0,0,528
4,0,0,0,0,568
5,0,0,0,0,521
6,0,0,0,0,536
7,0,0,0,0,299
8,0,0,0,0,288
9,0,0,0,0,410
10,0,0,0,0,480
11,0,0,0,0,540
12,0,0,0,0,575
13,0,0,0,0,579
14,0,0,0,0,577
15,0,0,0,0,570
0,0,0,0,0,568
1,0,0,0,0,568
2,0,0,0,0,563
3,0,0,0,0,559
4,0,0,0,0,556
5,0,0,0,0,557
6,0,0,0,0,557
7,0,0,0,0,553
8,0,0,0,0,551
9,0,0,0,0,550
10,0,0,0,0,551
11,0,0,0,0,544
12,0,0,0,0,531
13,0,0,0,0,521
14,0,0,0,0,511
15,0,0,0,0,498
0,0,0,0,0,486
1,0,0,0,0,477
2,0,0,0,0,473
3,0,0,0,0,468
4,0,0,0,0,468
5,0,0,0,0,467
6,0,0,0,0,469
7,0,0,0,0,472
8,0,0,0,0,473
9,0,0,0,0,479
10,0,0,0,0,483
11,0,0,0,0,489
12,0,0,0,0,492
13,0,0,0,0,494
14,0,0,0,0,489
15,0,0,0,0,491
0,0,0,0,0,494
1,0,0,0,0,490
2,0,0,0,0,489
3,0,0,0,0,490
4,0,0,0,0,492
5,0,0,0,0,495
6,0,0,0,0,494
7,0,0,0,0,494
8,0,0,0,0,494
9,0,0,0,0,497
10,0,0,0,0,496
11,0,0,0,0,494
12,0,0,0,0,495
13,0,0,0,0,493
14,0,0,0,0,490
15,0,0,0,0,493
0,0,0,0,0,494
1,0,0,0,0,495
2,0,0,0,0,499
3,0,0,0,0,499
4,0,0,0,0,502
5,0,0,0,0,504
6,0,0,0,0,505
7,0,0,0,0,506
8,0,0,0,0,508
9,0,0,0,0,511
10,0,0,0,0,513
11,0,0,0,0,515
12,0,0,0,0,515
13,0,0,0,0,517
14,0,0,0,0,518
15,0,0,0,0,521
0,0,0,0,0,519
1,0,0,0,0,520
2,0,0,0,0,525
3,0,0,0,0,524
4,0,0,0,0,525
5,0,0,0,0,529
6,0,0,0,0,535
7,0,0,0,0,535
8,0,0,0,0,536
9,0,0,0,0,527
10,0,0,0,0,519
11,0,0,0,0,515
12,0,0,0,0,514
13,0,0,0,0,511
14,0,0,0,0,507
15,0,0,0,0,508
0,0,0,0,0,508
1,0,0,0,0,507
2,0,0,0,0,510
3,0,0,0,0,548
4,0,0,0,0,561
5,0,0,0,0,510
6,0,0,0,0,476
7,0,0,0,0,212
8,0,0,0,0,322
9,0,0,0,0,436
10,0,0,0,0,518
11,0,0,0,0,574
12,0,0,0,0,588
13,0,0,0,0,587
14,0,0,0,0,584
15,0,0,0,0,579
0,0,0,0,0,573
1,0,0,0,0,571
2,0,0,0,0,566
3,0,0,0,0,564
4,0,0,0,0,562
5,0,0,0,0,562
6,0,0,0,0,564
7,0,0,0,0,566
8,0,0,0,0,566
9,0,0,0,0,567
10,0,0,0,0,564
11,0,0,0,0,563
12,0,0,0,0,551
13,0,0,0,0,535
14,0,0,0,0,518
15,0,0,0,0,502
0,0,0,0,0,486
1,0,0,0,0,472
2,0,0,0,0,467
3,0,0,0,0,465
4,0,0,0,0,462
5,0,0,0,0,462
6,0,0,0,0,465
7,0,0,0,0,467
8,0,0,0,0,473
9,0,0,0,0,477
10,0,0,0,0,481
11,0,0,0,0,486
12,0,0,0,0,491
13,0,0,0,0,494
14,0,0,0,0,495
15,0,0,0,0,496
0,0,0,0,0,499
1,0,0,0,0,500
2,0,0,0,0,499
3,0,0,0,0,497
4,0,0,0,0,500
5,0,0,0,0,499
6,0,0,0,0,497
7,0,0,0,0,498
8,0,0,0,0,495
9,0,0,0,0,494
10,0,0,0,0,494
11,0,0,0,0,495
12,0,0,0,0,496
13,0,0,0,0,498
14,0,0,0,0,501
15,0,0,0,0,500
0,0,0,0,0,500
1,0,0,0,0,502
2,0,0,0,0,505
3,0,0,0,0,504
4,0,0,0,0,505
5,0,0,0,0,504
6,0,0,0,0,505
7,0,0,0,0,504
8,0,0,0,0,504
9,0,0,0,0,507
10,0,0,0,0,510
11,0,0,0,0,510
12,0,0,0,0,510
13,0,0,0,0,507
14,0,0,0,0,509
15,0,0,0,0,511
0,0,0,0,0,511
1,0,0,0,0,514
2,0,0,0,0,515
3,0,0,0,0,513
4,0,0,0,0,512
5,0,0,0,0,511
6,0,0,0,0,508
7,0,0,0,0,512
8,0,0,0,0,512
9,0,0,0,0,518
10,0,0,0,0,517
11,0,0,0,0,528
12,0,0,0,0,536
13,0,0,0,0,533
14,0,0,0,0,527
15,0,0,0,0,531
0,0,0,0,0,529
1,0,0,0,0,528
2,0,0,0,0,527
3,0,0,0,0,525
4,0,0,0,0,524
5,0,0,0,0,528
6,0,0,0,0,569
7,0,0,0,0,568
8,0,0,0,0,518
9,0,0,0,0,455
10,0,0,0,0,220
11,0,0,0,0,358
12,0,0,0,0,450
13,0,0,0,0,524
14,0,0,0,0,574
15,0,0,0,0,586
0,0,0,0,0,583
1,0,0,0,0,579
2,0,0,0,0,574
3,0,0,0,0,567
4,0,0,0,0,561
5,0,0,0,0,558
6,0,0,0,0,555
7,0,0,0,0,553
8,0,0,0,0,553
9,0,0,0,0,552
10,0,0,0,0,555
11,0,0,0,0,563
12,0,0,0,0,563
13,0,0,0,0,563
14,0,0,0,0,559
15,0,0,0,0,547
0,0,0,0,0,533
1,0,0,0,0,520
2,0,0,0,0,503
3,0,0,0,0,486
4,0,0,0,0,475
5,0,0,0,0,469
6,0,0,0,0,462
7,0,0,0,0,457
8,0,0,0,0,458
9,0,0,0,0,459
10,0,0,0,0,463
11,0,0,0,0,469
12,0,0,0,0,477
13,0,0,0,0,481
14,0,0,0,0,484
15,0,0,0,0,489
0,0,0,0,0,493
1,0,0,0,0,495
2,0,0,0,0,495
3,0,0,0,0,496
4,0,0,0,0,494
5,0,0,0,0,497
6,0,0,0,0,497
7,0,0,0,0,497
8,0,0,0,0,499
9,0,0,0,0,499
10,0,0,0,0,500
11,0,0,0,0,503
12,0,0,0,0,506
13,0,0,0,0,497
14,0,0,0,0,490
15,0,0,0,0,491
0,0,0,0,0,490
1,0,0,0,0,492
2,0,0,0,0,494
3,0,0,0,0,494
4,0,0,0,0,495
5,0,0,0,0,493
6,0,0,0,0,495
7,0,0,0,0,494
8,0,0,0,0,496
9,0,0,0,0,497
10,0,0,0,0,499
11,0,0,0,0,499
12,0,0,0,0,498
13,0,0,0,0,497
14,0,0,0,0,499
15,0,0,0,0,499
0,0,0,0,0,496
1,0,0,0,0,493
2,0,0,0,0,496
3,0,0,0,0,494
4,0,0,0,0,495
5,0,0,0,0,495
6,0,0,0,0,496
7,0,0,0,0,495
8,0,0,0,0,495
9,0,0,0,0,497
10,0,0,0,0,497
11,0,0,0,0,499
12,0,0,0,0,506
13,0,0,0,0,507
14,0,0,0,0,511
15,0,0,0,0,511
0,0,0,0,0,502
1,0,0,0,0,494
2,0,0,0,0,497
3,0,0,0,0,492
4,0,0,0,0,491
5,0,0,0,0,491
6,0,0,0,0,491
7,0,0,0,0,493
8,0,0,0,0,497
9,0,0,0,0,538
10,0,0,0,0,548
11,0,0,0,0,499
12,0,0,0,0,479
13,0,0,0,0,227
14,0,0,0,0,334
15,0,0,0,0,422
0,0,0,0,0,490
1,0,0,0,0,546
2,0,0,0,0,570
3,0,0,0,0,572
4,0,0,0,0,569
5,0,0,0,0,563
6,0,0,0,0,558
7,0,0,0,0,555
8,0,0,0,0,548
9,0,0,0,0,546
10,0,0,0,0,549
11,0,0,0,0,550
12,0,0,0,0,549
13,0,0,0,0,547
14,0,0,0,0,550
15,0,0,0,0,552
0,0,0,0,0,554
1,0,0,0,0,548
2,0,0,0,0,539
3,0,0,0,0,528
4,0,0,0,0,515
5,0,0,0,0,501
6,0,0,0,0,484
7,0,0,0,0,475
8,0,0,0,0,470
9,0,0,0,0,471
10,0,0,0,0,473
11,0,0,0,0,474
12,0,0,0,0,477
13,0,0,0,0,482
14,0,0,0,0,487
15,0,0,0,0,493
0,0,0,0,0,498
1,0,0,0,0,502
2,0,0,0,0,506
3,0,0,0,0,509
4,0,0,0,0,511
5,0,0,0,0,512
6,0,0,0,0,512
7,0,0,0,0,516
8,0,0,0,0,519
9,0,0,0,0,524
10,0,0,0,0,526
11,0,0,0,0,528
12,0,0,0,0,529
13,0,0,0,0,537
14,0,0,0,0,547
15,0,0,0,0,549
0,0,0,0,0,547
1,0,0,0,0,541
2,0,0,0,0,539
3,0,0,0,0,535
4,0,0,0,0,536
5,0,0,0,0,539
6,0,0,0,0,539
7,0,0,0,0,539
8,0,0,0,0,538
9,0,0,0,0,535
10,0,0,0,0,535
11,0,0,0,0,531
12,0,0,0,0,531
13,0,0,0,0,526
14,0,0,0,0,531
15,0,0,0,0,527
0,0,0,0,0,525
1,0,0,0,0,526
2,0,0,0,0,524
3,0,0,0,0,516
4,0,0,0,0,514
5,0,0,0,0,511
6,0,0,0,0,513
7,0,0,0,0,514
8,0,0,0,0,515
9,0,0,0,0,515
10,0,0,0,0,516
11,0,0,0,0,517
12,0,0,0,0,517
13,0,0,0,0,517
14,0,0,0,0,523
15,0,0,0,0,529
0,0,0,0,0,531
1,0,0,0,0,533
2,0,0,0,0,529
3,0,0,0,0,521
4,0,0,0,0,516
5,0,0,0,0,516
6,0,0,0,0,511
7,0,0,0,0,508
8,0,0,0,0,511
9,0,0,0,0,512
10,0,0,0,0,513
11,0,0,0,0,524
12,0,0,0,0,564
13,0,0,0,0,552
14,0,0,0,0,515
15,0,0,0,0,416
0,0,0,0,0,199
1,0,0,0,0,359
2,0,0,0,0,467
3,0,0,0,0,547
4,0,0,0,0,593
5,0,0,0,0,599
6,0,0,0,0,596
7,0,0,0,0,589
8,0,0,0,0,583
9,0,0,0,0,575
10,0,0,0,0,571
11,0,0,0,0,566
12,0,0,0,0,561
13,0,0,0,0,559
14,0,0,0,0,561
15,0,0,0,0,563
0,0,0,0,0,567
1,0,0,0,0,570
2,0,0,0,0,569
3,0,0,0,0,563
4,0,0,0,0,555
5,0,0,0,0,542
6,0,0,0,0,529
7,0,0,0,0,515
8,0,0,0,0,497
9,0,0,0,0,480
10,0,0,0,0,463
11,0,0,0,0,457
12,0,0,0,0,455
13,0,0,0,0,453
14,0,0,0,0,452
15,0,0,0,0,455
0,0,0,0,0,457
1,0,0,0,0,461
2,0,0,0,0,468
3,0,0,0,0,471
4,0,0,0,0,473
5,0,0,0,0,481
6,0,0,0,0,483
7,0,0,0,0,488
8,0,0,0,0,487
9,0,0,0,0,492
10,0,0,0,0,494
11,0,0,0,0,497
12,0,0,0,0,501
13,0,0,0,0,500
14,0,0,0,0,498
15,0,0,0,0,499
0,0,0,0,0,498
1,0,0,0,0,497
2,0,0,0,0,499
3,0,0,0,0,499
4,0,0,0,0,503
5,0,0,0,0,504
6,0,0,0,0,505
7,0,0,0,0,507
8,0,0,0,0,507
9,0,0,0,0,509
10,0,0,0,0,512
11,0,0,0,0,513
12,0,0,0,0,513
13,0,0,0,0,513
14,0,0,0,0,516
15,0,0,0,0,517
0,0,0,0,0,518
1,0,0,0,0,518
2,0,0,0,0,515
3,0,0,0,0,515
4,0,0,0,0,518
5,0,0,0,0,519
6,0,0,0,0,523
7,0,0,0,0,524
8,0,0,0,0,524
9,0,0,0,0,522
10,0,0,0,0,517
11,0,0,0,0,514
12,0,0,0,0,515
13,0,0,0,0,515
14,0,0,0,0,514
15,0,0,0,0,513
0,0,0,0,0,515
1,0,0,0,0,522
2,0,0,0,0,522
3,0,0,0,0,527
4,0,0,0,0,524
5,0,0,0,0,516
6,0,0,0,0,510
7,0,0,0,0,508
8,0,0,0,0,504
9,0,0,0,0,504
10,0,0,0,0,504
11,0,0,0,0,506
12,0,0,0,0,505
13,0,0,0,0,509
14,0,0,0,0,551
15,0,0,0,0,554
0,0,0,0,0,512
1,0,0,0,0,446
2,0,0,0,0,199
3,0,0,0,0,345
4,0,0,0,0,451
5,0,0,0,0,534
6,0,0,0,0,585
7,0,0,0,0,592
8,0,0,0,0,589
9,0,0,0,0,583
10,0,0,0,0,578
11,0,0,0,0,576
12,0,0,0,0,571
13,0,0,0,0,568
14,0,0,0,0,568
15,0,0,0,0,566
0,0,0,0,0,564
1,0,0,0,0,565
2,0,0,0,0,569
3,0,0,0,0,571
4,0,0,0,0,571
5,0,0,0,0,568
6,0,0,0,0,559
7,0,0,0,0,547
8,0,0,0,0,532
9,0,0,0,0,519
10,0,0,0,0,502
11,0,0,0,0,486
12,0,0,0,0,472
13,0,0,0,0,460
14,0,0,0,0,451
15,0,0,0,0,449
0,0,0,0,0,448
1,0,0,0,0,448
2,0,0,0,0,453
3,0,0,0,0,455
4,0,0,0,0,462
5,0,0,0,0,467
6,0,0,0,0,471
7,0,0,0,0,472
8,0,0,0,0,478
9,0,0,0,0,481
10,0,0,0,0,483
11,0,0,0,0,487
12,0,0,0,0,489
13,0,0,0,0,488
14,0,0,0,0,490
15,0,0,0,0,492
0,0,0,0,0,487
1,0,0,0,0,487
2,0,0,0,0,484
3,0,0,0,0,484
4,0,0,0,0,485
5,0,0,0,0,488
6,0,0,0,0,488
7,0,0,0,0,489
8,0,0,0,0,488
9,0,0,0,0,489
10,0,0,0,0,491
11,0,0,0,0,493
12,0,0,0,0,495
13,0,0,0,0,496
14,0,0,0,0,497
15,0,0,0,0,495
0,0,0,0,0,498
1,0,0,0,0,501
2,0,0,0,0,502
3,0,0,0,0,501
4,0,0,0,0,502
5,0,0,0,0,503
6,0,0,0,0,519
7,0,0,0,0,527
8,0,0,0,0,529
9,0,0,0,0,527
10,0,0,0,0,524
11,0,0,0,0,521
12,0,0,0,0,520
13,0,0,0,0,520
14,0,0,0,0,519
15,0,0,0,0,515
0,0,0,0,0,513
1,0,0,0,0,516
2,0,0,0,0,515
3,0,0,0,0,519
4,0,0,0,0,520
5,0,0,0,0,518
6,0,0,0,0,518
7,0,0,0,0,513
8,0,0,0,0,504
9,0,0,0,0,504
10,0,0,0,0,504
11,0,0,0,0,504
12,0,0,0,0,503
13,0,0,0,0,504
14,0,0,0,0,505
15,0,0,0,0,507
0,0,0,0,0,526
1,0,0,0,0,569
2,0,0,0,0,540
3,0,0,0,0,538
4,0,0,0,0,385
5,0,0,0,0,267
6,0,0,0,0,396
7,0,0,0,0,461
8,0,0,0,0,520
9,0,0,0,0,564
10,0,0,0,0,577
11,0,0,0,0,575
12,0,0,0,0,572
13,0,0,0,0,567
14,0,0,0,0,559
15,0,0,0,0,555
0,0,0,0,0,550
1,0,0,0,0,549
2,0,0,0,0,549
3,0,0,0,0,548
4,0,0,0,0,548
5,0,0,0,0,549
6,0,0,0,0,551
7,0,0,0,0,551
8,0,0,0,0,551
9,0,0,0,0,543
10,0,0,0,0,532
11,0,0,0,0,521
12,0,0,0,0,508
13,0,0,0,0,494
14,0,0,0,0,483
15,0,0,0,0,477
0,0,0,0,0,474
1,0,0,0,0,472
2,0,0,0,0,473
3,0,0,0,0,473
4,0,0,0,0,476
5,0,0,0,0,480
6,0,0,0,0,481
7,0,0,0,0,485
8,0,0,0,0,491
9,0,0,0,0,494
10,0,0,0,0,496
11,0,0,0,0,502
12,0,0,0,0,503
13,0,0,0,0,505
14,0,0,0,0,506
15,0,0,0,0,504
0,0,0,0,0,499
1,0,0,0,0,499
2,0,0,0,0,498
3,0,0,0,0,498
4,0,0,0,0,497
5,0,0,0,0,497
6,0,0,0,0,499
7,0,0,0,0,499
8,0,0,0,0,500
9,0,0,0,0,500
10,0,0,0,0,503
11,0,0,0,0,502
12,0,0,0,0,502
13,0,0,0,0,503
14,0,0,0,0,506
15,0,0,0,0,507
0,0,0,0,0,505
1,0,0,0,0,506
2,0,0,0,0,507
3,0,0,0,0,508
4,0,0,0,0,505
5,0,0,0,0,504
6,0,0,0,0,508
7,0,0,0,0,509
8,0,0,0,0,511
9,0,0,0,0,508
10,0,0,0,0,508
11,0,0,0,0,510
12,0,0,0,0,508
13,0,0,0,0,511
14,0,0,0,0,512
15,0,0,0,0,513
0,0,0,0,0,514
1,0,0,0,0,521
2,0,0,0,0,524
3,0,0,0,0,527
4,0,0,0,0,522
5,0,0,0,0,515
6,0,0,0,0,505
7,0,0,0,0,505
8,0,0,0,0,503
9,0,0,0,0,502
10,0,0,0,0,503
11,0,0,0,0,503
12,0,0,0,0,504
13,0,0,0,0,510
14,0,0,0,0,550
15,0,0,0,0,557
0,0,0,0,0,513
1,0,0,0,0,460
2,0,0,0,0,218
3,0,0,0,0,332
4,0,0,0,0,443
5,0,0,0,0,525
6,0,0,0,0,577
7,0,0,0,0,587
8,0,0,0,0,586
9,0,0,0,0,581
10,0,0,0,0,576
11,0,0,0,0,572
12,0,0,0,0,568
13,0,0,0,0,564
14,0,0,0,0,564
15,0,0,0,0,562
0,0,0,0,0,559
1,0,0,0,0,558
2,0,0,0,0,564
3,0,0,0,0,564
4,0,0,0,0,567
5,0,0,0,0,567
6,0,0,0,0,559
7,0,0,0,0,548
8,0,0,0,0,536
9,0,0,0,0,520
10,0,0,0,0,503
11,0,0,0,0,485
12,0,0,0,0,469
13,0,0,0,0,463
14,0,0,0,0,457
15,0,0,0,0,455
0,0,0,0,0,456
1,0,0,0,0,458
2,0,0,0,0,461
3,0,0,0,0,465
4,0,0,0,0,469
5,0,0,0,0,478
6,0,0,0,0,482
7,0,0,0,0,487
8,0,0,0,0,491
9,0,0,0,0,494
10,0,0,0,0,496
11,0,0,0,0,497
12,0,0,0,0,498
13,0,0,0,0,497
14,0,0,0,0,495
15,0,0,0,0,494
0,0,0,0,0,493
1,0,0,0,0,495
2,0,0,0,0,494
3,0,0,0,0,495
4,0,0,0,0,495
5,0,0,0,0,497
6,0,0,0,0,500
7,0,0,0,0,503
8,0,0,0,0,503
9,0,0,0,0,502
10,0,0,0,0,503
11,0,0,0,0,504
12,0,0,0,0,507
13,0,0,0,0,508
14,0,0,0,0,509
15,0,0,0,0,509
0,0,0,0,0,511
1,0,0,0,0,512
2,0,0,0,0,513
3,0,0,0,0,512
4,0,0,0,0,513
5,0,0,0,0,512
6,0,0,0,0,512
7,0,0,0,0,512
8,0,0,0,0,512
9,0,0,0,0,512
10,0,0,0,0,513
11,0,0,0,0,514
12,0,0,0,0,514
13,0,0,0,0,516
14,0,0,0,0,522
15,0,0,0,0,529
0,0,0,0,0,527
1,0,0,0,0,529
2,0,0,0,0,525
3,0,0,0,0,516
4,0,0,0,0,512
5,0,0,0,0,510
6,0,0,0,0,507
7,0,0,0,0,507
8,0,0,0,0,507
9,0,0,0,0,509
10,0,0,0,0,509
11,0,0,0,0,520
12,0,0,0,0,564
13,0,0,0,0,548
14,0,0,0,0,529
15,0,0,0,0,380
0,0,0,0,0,205
1,0,0,0,0,377
2,0,0,0,0,478
3,0,0,0,0,551
4,0,0,0,0,588
5,0,0,0,0,593
6,0,0,0,0,588
7,0,0,0,0,584
8,0,0,0,0,577
9,0,0,0,0,572
10,0,0,0,0,568
11,0,0,0,0,563
12,0,0,0,0,563
13,0,0,0,0,561
14,0,0,0,0,558
15,0,0,0,0,561
0,0,0,0,0,560
1,0,0,0,0,561
2,0,0,0,0,561
3,0,0,0,0,559
4,0,0,0,0,550
5,0,0,0,0,537
6,0,0,0,0,519
7,0,0,0,0,505
8,0,0,0,0,488
9,0,0,0,0,470
10,0,0,0,0,460
11,0,0,0,0,451
12,0,0,0,0,447
13,0,0,0,0,447
14,0,0,0,0,450
15,0,0,0,0,454
0,0,0,0,0,455
1,0,0,0,0,460
2,0,0,0,0,468
3,0,0,0,0,473
4,0,0,0,0,478
5,0,0,0,0,484
6,0,0,0,0,486
7,0,0,0,0,488
8,0,0,0,0,489
9,0,0,0,0,489
10,0,0,0,0,489
11,0,0,0,0,491
12,0,0,0,0,490
13,0,0,0,0,489
14,0,0,0,0,491
15,0,0,0,0,492
0,0,0,0,0,491
1,0,0,0,0,491
2,0,0,0,0,492
3,0,0,0,0,492
4,0,0,0,0,492
5,0,0,0,0,495
6,0,0,0,0,496
7,0,0,0,0,495
8,0,0,0,0,494
9,0,0,0,0,493
10,0,0,0,0,495
11,0,0,0,0,496
12,0,0,0,0,496
13,0,0,0,0,497
14,0,0,0,0,498
15,0,0,0,0,499
0,0,0,0,0,500
1,0,0,0,0,501
2,0,0,0,0,502
3,0,0,0,0,505
4,0,0,0,0,506
5,0,0,0,0,507
6,0,0,0,0,507
7,0,0,0,0,508
8,0,0,0,0,508
9,0,0,0,0,511
10,0,0,0,0,516
11,0,0,0,0,518
12,0,0,0,0,524
13,0,0,0,0,527
14,0,0,0,0,532
15,0,0,0,0,531
0,0,0,0,0,525
1,0,0,0,0,519
2,0,0,0,0,521
3,0,0,0,0,521
4,0,0,0,0,520
5,0,0,0,0,523
6,0,0,0,0,523
7,0,0,0,0,524
8,0,0,0,0,524
9,0,0,0,0,557
10,0,0,0,0,580
11,0,0,0,0,527
12,0,0,0,0,543
13,0,0,0,0,268
14,0,0,0,0,322
15,0,0,0,0,433
0,0,0,0,0,508
1,0,0,0,0,568
2,0,0,0,0,597
3,0,0,0,0,597
4,0,0,0,0,594
5,0,0,0,0,590
6,0,0,0,0,583
7,0,0,0,0,579
8,0,0,0,0,578
9,0,0,0,0,578
10,0,0,0,0,576
11,0,0,0,0,574
12,0,0,0,0,571
13,0,0,0,0,572
14,0,0,0,0,573
15,0,0,0,0,572
0,0,0,0,0,572
1,0,0,0,0,566
2,0,0,0,0,558
3,0,0,0,0,545
4,0,0,0,0,532
5,0,0,0,0,518
6,0,0,0,0,503
7,0,0,0,0,487
8,0,0,0,0,478
9,0,0,0,0,476
10,0,0,0,0,472
11,0,0,0,0,469
12,0,0,0,0,471
13,0,0,0,0,476
14,0,0,0,0,481
15,0,0,0,0,483
0,0,0,0,0,492
1,0,0,0,0,491
2,0,0,0,0,494
3,0,0,0,0,496
4,0,0,0,0,501
5,0,0,0,0,503
6,0,0,0,0,505
7,0,0,0,0,503
8,0,0,0,0,502
9,0,0,0,0,502
10,0,0,0,0,502
11,0,0,0,0,505
12,0,0,0,0,516
13,0,0,0,0,519
14,0,0,0,0,519
15,0,0,0,0,518
0,0,0,0,0,515
1,0,0,0,0,511
2,0,0,0,0,508
3,0,0,0,0,507
4,0,0,0,0,505
5,0,0,0,0,505
6,0,0,0,0,503
7,0,0,0,0,503
8,0,0,0,0,500
9,0,0,0,0,502
10,0,0,0,0,504
11,0,0,0,0,504
12,0,0,0,0,502
13,0,0,0,0,507
14,0,0,0,0,506
15,0,0,0,0,506
0,0,0,0,0,510
1,0,0,0,0,511
2,0,0,0,0,512
3,0,0,0,0,513
4,0,0,0,0,515
5,0,0,0,0,521
6,0,0,0,0,524
7,0,0,0,0,527
8,0,0,0,0,526
9,0,0,0,0,522
10,0,0,0,0,513
11,0,0,0,0,514
12,0,0,0,0,511
13,0,0,0,0,508
14,0,0,0,0,508
15,0,0,0,0,508
0,0,0,0,0,507
1,0,0,0,0,510
2,0,0,0,0,529
3,0,0,0,0,574
4,0,0,0,0,540
5,0,0,0,0,550
6,0,0,0,0,379
7,0,0,0,0,281
8,0,0,0,0,401
9,0,0,0,0,462
10,0,0,0,0,523
11,0,0,0,0,563
12,0,0,0,0,575
13,0,0,0,0,571
14,0,0,0,0,568
15,0,0,0,0,565
0,0,0,0,0,558
1,0,0,0,0,554
2,0,0,0,0,555
3,0,0,0,0,555
4,0,0,0,0,548
5,0,0,0,0,550
6,0,0,0,0,553
7,0,0,0,0,555
8,0,0,0,0,558
9,0,0,0,0,558
10,0,0,0,0,553
11,0,0,0,0,547
12,0,0,0,0,536
13,0,0,0,0,528
14,0,0,0,0,516
15,0,0,0,0,503
0,0,0,0,0,492
1,0,0,0,0,488
2,0,0,0,0,487
3,0,0,0,0,487
4,0,0,0,0,487
5,0,0,0,0,489
6,0,0,0,0,492
7,0,0,0,0,496
8,0,0,0,0,499
9,0,0,0,0,508
10,0,0,0,0,518
11,0,0,0,0,521
12,0,0,0,0,519
13,0,0,0,0,520
14,0,0,0,0,516
15,0,0,0,0,515
0,0,0,0,0,511
1,0,0,0,0,504
2,0,0,0,0,501
3,0,0,0,0,499
4,0,0,0,0,497
5,0,0,0,0,492
6,0,0,0,0,494
7,0,0,0,0,495
8,0,0,0,0,493
9,0,0,0,0,495
10,0,0,0,0,490
11,0,0,0,0,488
12,0,0,0,0,488
13,0,0,0,0,487
14,0,0,0,0,483
15,0,0,0,0,487
0,0,0,0,0,486
1,0,0,0,0,490
2,0,0,0,0,489
3,0,0,0,0,490
4,0,0,0,0,487
5,0,0,0,0,488
6,0,0,0,0,487
7,0,0,0,0,487
8,0,0,0,0,488
9,0,0,0,0,486
10,0,0,0,0,483
11,0,0,0,0,482
12,0,0,0,0,482
13,0,0,0,0,483
14,0,0,0,0,488
15,0,0,0,0,498
0,0,0,0,0,498
1,0,0,0,0,501
2,0,0,0,0,496
3,0,0,0,0,485
4,0,0,0,0,481
5,0,0,0,0,482
6,0,0,0,0,482
7,0,0,0,0,481
8,0,0,0,0,481
9,0,0,0,0,484
10,0,0,0,0,488
11,0,0,0,0,492
12,0,0,0,0,528
13,0,0,0,0,543
14,0,0,0,0,499
15,0,0,0,0,474
0,0,0,0,0,207
1,0,0,0,0,288
2,0,0,0,0,419
3,0,0,0,0,508
4,0,0,0,0,567
5,0,0,0,0,583
6,0,0,0,0,583
7,0,0,0,0,580
8,0,0,0,0,575
9,0,0,0,0,569
10,0,0,0,0,564
11,0,0,0,0,561
12,0,0,0,0,559
13,0,0,0,0,557
14,0,0,0,0,558
15,0,0,0,0,562
0,0,0,0,0,563
1,0,0,0,0,565
2,0,0,0,0,566
3,0,0,0,0,568
4,0,0,0,0,562
5,0,0,0,0,551
6,0,0,0,0,537
7,0,0,0,0,524
8,0,0,0,0,505
9,0,0,0,0,492
10,0,0,0,0,477
11,0,0,0,0,471
12,0,0,0,0,468
13,0,0,0,0,464
14,0,0,0,0,462
15,0,0,0,0,465
0,0,0,0,0,469
1,0,0,0,0,477
2,0,0,0,0,480
3,0,0,0,0,485
4,0,0,0,0,491
5,0,0,0,0,497
6,0,0,0,0,505
7,0,0,0,0,509
8,0,0,0,0,512
9,0,0,0,0,516
10,0,0,0,0,520
11,0,0,0,0,519
12,0,0,0,0,518
13,0,0,0,0,512
14,0,0,0,0,514
15,0,0,0,0,517
0,0,0,0,0,522
1,0,0,0,0,523
2,0,0,0,0,519
3,0,0,0,0,521
4,0,0,0,0,520
5,0,0,0,0,521
6,0,0,0,0,521
7,0,0,0,0,522
8,0,0,0,0,521
9,0,0,0,0,521
10,0,0,0,0,521
11,0,0,0,0,523
12,0,0,0,0,525
13,0,0,0,0,524
14,0,0,0,0,524
15,0,0,0,0,523
0,0,0,0,0,521
1,0,0,0,0,521
2,0,0,0,0,521
3,0,0,0,0,521
4,0,0,0,0,523
5,0,0,0,0,522
6,0,0,0,0,522
7,0,0,0,0,528
8,0,0,0,0,528
9,0,0,0,0,531
10,0,0,0,0,530
11,0,0,0,0,527
12,0,0,0,0,527
13,0,0,0,0,526
14,0,0,0,0,524
15,0,0,0,0,523
0,0,0,0,0,520
1,0,0,0,0,525
2,0,0,0,0,528
3,0,0,0,0,529
4,0,0,0,0,530
5,0,0,0,0,527
6,0,0,0,0,519
7,0,0,0,0,519
8,0,0,0,0,517
9,0,0,0,0,515
10,0,0,0,0,514
11,0,0,0,0,515
12,0,0,0,0,517
13,0,0,0,0,521
14,0,0,0,0,547
15,0,0,0,0,581
0,0,0,0,0,534
1,0,0,0,0,543
2,0,0,0,0,278
3,0,0,0,0,283
4,0,0,0,0,422
5,0,0,0,0,501
6,0,0,0,0,565
7,0,0,0,0,597
8,0,0,0,0,593
9,0,0,0,0,587
10,0,0,0,0,580
11,0,0,0,0,575
12,0,0,0,0,572
13,0,0,0,0,569
14,0,0,0,0,569
15,0,0,0,0,566
0,0,0,0,0,563
1,0,0,0,0,563
2,0,0,0,0,566
3,0,0,0,0,569
4,0,0,0,0,569
5,0,0,0,0,570
6,0,0,0,0,567
7,0,0,0,0,559
8,0,0,0,0,546
9,0,0,0,0,532
10,0,0,0,0,517
11,0,0,0,0,497
12,0,0,0,0,477
13,0,0,0,0,470
14,0,0,0,0,467
15,0,0,0,0,460
0,0,0,0,0,455
1,0,0,0,0,457
2,0,0,0,0,462
3,0,0,0,0,465
4,0,0,0,0,468
5,0,0,0,0,474
6,0,0,0,0,482
7,0,0,0,0,484
8,0,0,0,0,489
9,0,0,0,0,492
10,0,0,0,0,497
11,0,0,0,0,496
12,0,0,0,0,496
13,0,0,0,0,495
14,0,0,0,0,494
15,0,0,0,0,493
0,0,0,0,0,493
1,0,0,0,0,495
2,0,0,0,0,496
3,0,0,0,0,495
4,0,0,0,0,492
5,0,0,0,0,494
6,0,0,0,0,495
7,0,0,0,0,498
8,0,0,0,0,500
9,0,0,0,0,502
10,0,0,0,0,501
