# OpenSignals Text File Format. Version 1
# {"84:BA:20:5E:FB:98": {"position": 0, "device": "bitalino_rev", "device name": "84:BA:20:5E:FB:98", "device connection": "BTH84:BA:20:5E:FB:98", "sampling rate": 100, "resolution": [4, 1, 1, 1, 1, 10], "firmware version": 1282, "comments": "", "keywords": "'flexiones'", "mode": 0, "sync interval": 2, "date": "2024-3-1", "time": "18:3:36.104", "channels": [1], "sensor": ["EMGBITREV"], "label": ["A1"], "column": ["nSeq", "I1", "I2", "O1", "O2", "A1"], "special": [{}], "digital IO": [0, 0, 1, 1]}}
# EndOfHeader
0	0	0	0	0	515	
1	0	0	0	0	501	
2	0	0	0	0	524	
3	0	0	0	0	517	
4	0	0	0	0	512	
5	0	0	0	0	515	
6	0	0	0	0	520	
7	0	0	0	0	513	
8	0	0	0	0	508	
9	0	0	0	0	497	
10	0	0	0	0	504	
11	0	0	0	0	505	
12	0	0	0	0	502	
13	0	0	0	0	509	
14	0	0	0	0	502	
15	0	0	0	0	514	
0	0	0	0	0	511	
1	0	0	0	0	512	
2	0	0	0	0	514	
3	0	0	0	0	508	
4	0	0	0	0	516	
5	0	0	0	0	504	
6	0	0	0	0	500	
7	0	0	0	0	507	
8	0	0	0	0	508	
9	0	0	0	0	519	
10	0	0	0	0	513	
11	0	0	0	0	510	
12	0	0	0	0	511	
13	0	0	0	0	504	
14	0	0	0	0	509	
15	0	0	0	0	505	
0	0	0	0	0	512	
1	0	0	0	0	509	
2	0	0	0	0	507	
3	0	0	0	0	515	
4	0	0	0	0	515	
5	0	0	0	0	504	
6	0	0	0	0	501	
7	0	0	0	0	510	
8	0	0	0	0	515	
9	0	0	0	0	517	
10	0	0	0	0	504	
11	0	0	0	0	487	
12	0	0	0	0	591	
13	0	0	0	0	479	
14	0	0	0	0	460	
15	0	0	0	0	539	
0	0	0	0	0	522	
1	0	0	0	0	503	
2	0	0	0	0	505	
3	0	0	0	0	499	
4	0	0	0	0	519	
5	0	0	0	0	507	
6	0	0	0	0	511	
7	0	0	0	0	509	
8	0	0	0	0	508	
9	0	0	0	0	504	
10	0	0	0	0	499	
11	0	0	0	0	512	
12	0	0	0	0	504	
13	0	0	0	0	506	
14	0	0	0	0	512	
15	0	0	0	0	502	
0	0	0	0	0	523	
1	0	0	0	0	507	
2	0	0	0	0	507	
3	0	0	0	0	507	
4	0	0	0	0	510	
5	0	0	0	0	519	
6	0	0	0	0	513	
7	0	0	0	0	499	
8	0	0	0	0	512	
9	0	0	0	0	510	
10	0	0	0	0	512	
11	0	0	0	0	508	
12	0	0	0	0	506	
13	0	0	0	0	518	
14	0	0	0	0	508	
15	0	0	0	0	510	
0	0	0	0	0	512	
1	0	0	0	0	504	
2	0	0	0	0	515	
3	0	0	0	0	532	
4	0	0	0	0	487	
5	0	0	0	0	512	
6	0	0	0	0	508	
7	0	0	0	0	503	
8	0	0	0	0	518	
9	0	0	0	0	519	
10	0	0	0	0	520	
11	0	0	0	0	501	
12	0	0	0	0	481	
13	0	0	0	0	511	
14	0	0	0	0	515	
15	0	0	0	0	519	
0	0	0	0	0	519	
1	0	0	0	0	502	
2	0	0	0	0	511	
3	0	0	0	0	502	
4	0	0	0	0	504	
5	0	0	0	0	494	
6	0	0	0	0	480	
7	0	0	0	0	566	
8	0	0	0	0	456	
9	0	0	0	0	471	
10	0	0	0	0	527	
11	0	0	0	0	513	
12	0	0	0	0	503	
13	0	0	0	0	505	
14	0	0	0	0	497	
15	0	0	0	0	508	
0	0	0	0	0	517	
1	0	0	0	0	526	
2	0	0	0	0	503	
3	0	0	0	0	499	
4	0	0	0	0	490	
5	0	0	0	0	495	
6	0	0	0	0	513	
7	0	0	0	0	520	
8	0	0	0	0	508	
9	0	0	0	0	508	
10	0	0	0	0	504	
11	0	0	0	0	512	
12	0	0	0	0	509	
13	0	0	0	0	508	
14	0	0	0	0	514	
15	0	0	0	0	506	
0	0	0	0	0	512	
1	0	0	0	0	502	
2	0	0	0	0	511	
3	0	0	0	0	510	
4	0	0	0	0	521	
5	0	0	0	0	499	
6	0	0	0	0	523	
7	0	0	0	0	531	
8	0	0	0	0	408	
9	0	0	0	0	536	
10	0	0	0	0	527	
11	0	0	0	0	582	
12	0	0	0	0	534	
13	0	0	0	0	455	
14	0	0	0	0	484	
15	0	0	0	0	520	
0	0	0	0	0	529	
1	0	0	0	0	514	
2	0	0	0	0	532	
3	0	0	0	0	493	
4	0	0	0	0	504	
5	0	0	0	0	519	
6	0	0	0	0	507	
7	0	0	0	0	505	
8	0	0	0	0	485	
9	0	0	0	0	530	
10	0	0	0	0	527	
11	0	0	0	0	515	
12	0	0	0	0	509	
13	0	0	0	0	535	
14	0	0	0	0	492	
15	0	0	0	0	497	
0	0	0	0	0	530	
1	0	0	0	0	464	
2	0	0	0	0	498	
3	0	0	0	0	546	
4	0	0	0	0	532	
5	0	0	0	0	500	
6	0	0	0	0	512	
7	0	0	0	0	511	
8	0	0	0	0	549	
9	0	0	0	0	457	
10	0	0	0	0	504	
11	0	0	0	0	526	
12	0	0	0	0	524	
13	0	0	0	0	490	
14	0	0	0	0	535	
15	0	0	0	0	498	
0	0	0	0	0	492	
1	0	0	0	0	507	
2	0	0	0	0	492	
3	0	0	0	0	511	
4	0	0	0	0	517	
5	0	0	0	0	504	
6	0	0	0	0	530	
7	0	0	0	0	508	
8	0	0	0	0	512	
9	0	0	0	0	496	
10	0	0	0	0	488	
11	0	0	0	0	494	
12	0	0	0	0	516	
13	0	0	0	0	518	
14	0	0	0	0	527	
15	0	0	0	0	481	
0	0	0	0	0	498	
1	0	0	0	0	455	
2	0	0	0	0	536	
3	0	0	0	0	499	
4	0	0	0	0	499	
5	0	0	0	0	490	
6	0	0	0	0	496	
7	0	0	0	0	517	
8	0	0	0	0	511	
9	0	0	0	0	513	
10	0	0	0	0	515	
11	0	0	0	0	507	
12	0	0	0	0	513	
13	0	0	0	0	520	
14	0	0	0	0	527	
15	0	0	0	0	481	
0	0	0	0	0	493	
1	0	0	0	0	540	
2	0	0	0	0	518	
3	0	0	0	0	507	
4	0	0	0	0	519	
5	0	0	0	0	517	
6	0	0	0	0	503	
7	0	0	0	0	492	
8	0	0	0	0	467	
9	0	0	0	0	594	
10	0	0	0	0	466	
11	0	0	0	0	505	
12	0	0	0	0	529	
13	0	0	0	0	517	
14	0	0	0	0	493	
15	0	0	0	0	509	
0	0	0	0	0	503	
1	0	0	0	0	501	
2	0	0	0	0	526	
3	0	0	0	0	519	
4	0	0	0	0	519	
5	0	0	0	0	518	
6	0	0	0	0	512	
7	0	0	0	0	512	
8	0	0	0	0	508	
9	0	0	0	0	510	
10	0	0	0	0	512	
11	0	0	0	0	514	
12	0	0	0	0	507	
13	0	0	0	0	504	
14	0	0	0	0	508	
15	0	0	0	0	510	
0	0	0	0	0	529	
1	0	0	0	0	508	
2	0	0	0	0	504	
3	0	0	0	0	508	
4	0	0	0	0	505	
5	0	0	0	0	504	
6	0	0	0	0	496	
7	0	0	0	0	536	
8	0	0	0	0	505	
9	0	0	0	0	487	
10	0	0	0	0	524	
11	0	0	0	0	504	
12	0	0	0	0	499	
13	0	0	0	0	499	
14	0	0	0	0	520	
15	0	0	0	0	511	
0	0	0	0	0	513	
1	0	0	0	0	492	
2	0	0	0	0	507	
3	0	0	0	0	517	
4	0	0	0	0	509	
5	0	0	0	0	505	
6	0	0	0	0	527	
7	0	0	0	0	507	
8	0	0	0	0	493	
9	0	0	0	0	511	
10	0	0	0	0	512	
11	0	0	0	0	525	
12	0	0	0	0	495	
13	0	0	0	0	510	
14	0	0	0	0	532	
15	0	0	0	0	511	
0	0	0	0	0	433	
1	0	0	0	0	648	
2	0	0	0	0	472	
3	0	0	0	0	483	
4	0	0	0	0	541	
5	0	0	0	0	498	
6	0	0	0	0	494	
7	0	0	0	0	507	
8	0	0	0	0	493	
9	0	0	0	0	506	
10	0	0	0	0	489	
11	0	0	0	0	513	
12	0	0	0	0	509	
13	0	0	0	0	499	
14	0	0	0	0	518	
15	0	0	0	0	489	
0	0	0	0	0	503	
1	0	0	0	0	504	
2	0	0	0	0	519	
3	0	0	0	0	531	
4	0	0	0	0	503	
5	0	0	0	0	500	
6	0	0	0	0	529	
7	0	0	0	0	522	
8	0	0	0	0	528	
9	0	0	0	0	524	
10	0	0	0	0	513	
11	0	0	0	0	509	
12	0	0	0	0	521	
13	0	0	0	0	499	
14	0	0	0	0	515	
15	0	0	0	0	517	
0	0	0	0	0	495	
1	0	0	0	0	488	
2	0	0	0	0	501	
3	0	0	0	0	510	
4	0	0	0	0	508	
5	0	0	0	0	511	
6	0	0	0	0	511	
7	0	0	0	0	497	
8	0	0	0	0	510	
9	0	0	0	0	476	
10	0	0	0	0	506	
11	0	0	0	0	508	
12	0	0	0	0	521	
13	0	0	0	0	508	
14	0	0	0	0	502	
15	0	0	0	0	514	
0	0	0	0	0	516	
1	0	0	0	0	520	
2	0	0	0	0	487	
3	0	0	0	0	496	
4	0	0	0	0	514	
5	0	0	0	0	503	
6	0	0	0	0	505	
7	0	0	0	0	518	
8	0	0	0	0	503	
9	0	0	0	0	469	
10	0	0	0	0	543	
11	0	0	0	0	501	
12	0	0	0	0	486	
13	0	0	0	0	536	
14	0	0	0	0	528	
15	0	0	0	0	508	
0	0	0	0	0	515	
1	0	0	0	0	516	
2	0	0	0	0	488	
3	0	0	0	0	505	
4	0	0	0	0	507	
5	0	0	0	0	504	
6	0	0	0	0	481	
7	0	0	0	0	737	
8	0	0	0	0	556	
9	0	0	0	0	505	
10	0	0	0	0	531	
11	0	0	0	0	541	
12	0	0	0	0	415	
13	0	0	0	0	477	
14	0	0	0	0	475	
15	0	0	0	0	417	
0	0	0	0	0	423	
1	0	0	0	0	564	
2	0	0	0	0	539	
3	0	0	0	0	525	
4	0	0	0	0	516	
5	0	0	0	0	534	
6	0	0	0	0	543	
7	0	0	0	0	531	
8	0	0	0	0	513	
9	0	0	0	0	478	
10	0	0	0	0	506	
11	0	0	0	0	505	
12	0	0	0	0	532	
13	0	0	0	0	518	
14	0	0	0	0	504	
15	0	0	0	0	512	
0	0	0	0	0	495	
1	0	0	0	0	497	
2	0	0	0	0	509	
3	0	0	0	0	503	
4	0	0	0	0	508	
5	0	0	0	0	509	
6	0	0	0	0	530	
7	0	0	0	0	508	
8	0	0	0	0	508	
9	0	0	0	0	509	
10	0	0	0	0	431	
11	0	0	0	0	572	
12	0	0	0	0	492	
13	0	0	0	0	481	
14	0	0	0	0	512	
15	0	0	0	0	549	
0	0	0	0	0	510	
1	0	0	0	0	532	
2	0	0	0	0	493	
3	0	0	0	0	470	
4	0	0	0	0	513	
5	0	0	0	0	523	
6	0	0	0	0	469	
7	0	0	0	0	534	
8	0	0	0	0	534	
9	0	0	0	0	498	
10	0	0	0	0	499	
11	0	0	0	0	494	
12	0	0	0	0	516	
13	0	0	0	0	505	
14	0	0	0	0	493	
15	0	0	0	0	519	
0	0	0	0	0	509	
1	0	0	0	0	490	
2	0	0	0	0	512	
3	0	0	0	0	518	
4	0	0	0	0	523	
5	0	0	0	0	512	
6	0	0	0	0	503	
7	0	0	0	0	500	
8	0	0	0	0	496	
9	0	0	0	0	501	
10	0	0	0	0	515	
11	0	0	0	0	518	
12	0	0	0	0	512	
13	0	0	0	0	511	
14	0	0	0	0	512	
15	0	0	0	0	509	
0	0	0	0	0	516	
1	0	0	0	0	509	
2	0	0	0	0	516	
3	0	0	0	0	512	
4	0	0	0	0	501	
5	0	0	0	0	514	
6	0	0	0	0	521	
7	0	0	0	0	507	
8	0	0	0	0	502	
9	0	0	0	0	524	
10	0	0	0	0	520	
11	0	0	0	0	504	
12	0	0	0	0	503	
13	0	0	0	0	529	
14	0	0	0	0	501	
15	0	0	0	0	492	
0	0	0	0	0	504	
1	0	0	0	0	524	
2	0	0	0	0	505	
3	0	0	0	0	567	
4	0	0	0	0	472	
5	0	0	0	0	481	
6	0	0	0	0	519	
7	0	0	0	0	519	
8	0	0	0	0	513	
9	0	0	0	0	503	
10	0	0	0	0	506	
11	0	0	0	0	519	
12	0	0	0	0	519	
13	0	0	0	0	543	
14	0	0	0	0	481	
15	0	0	0	0	491	
0	0	0	0	0	506	
1	0	0	0	0	549	
2	0	0	0	0	582	
3	0	0	0	0	475	
4	0	0	0	0	474	
5	0	0	0	0	450	
6	0	0	0	0	542	
7	0	0	0	0	486	
8	0	0	0	0	499	
9	0	0	0	0	527	
10	0	0	0	0	510	
11	0	0	0	0	514	
12	0	0	0	0	470	
13	0	0	0	0	493	
14	0	0	0	0	508	
15	0	0	0	0	499	
0	0	0	0	0	508	
1	0	0	0	0	513	
2	0	0	0	0	480	
3	0	0	0	0	552	
4	0	0	0	0	516	
5	0	0	0	0	483	
6	0	0	0	0	526	
7	0	0	0	0	497	
8	0	0	0	0	502	
9	0	0	0	0	507	
10	0	0	0	0	510	
11	0	0	0	0	514	
12	0	0	0	0	512	
13	0	0	0	0	590	
14	0	0	0	0	481	
15	0	0	0	0	486	
0	0	0	0	0	515	
1	0	0	0	0	523	
2	0	0	0	0	494	
3	0	0	0	0	510	
4	0	0	0	0	509	
5	0	0	0	0	475	
6	0	0	0	0	536	
7	0	0	0	0	507	
8	0	0	0	0	468	
9	0	0	0	0	515	
10	0	0	0	0	516	
11	0	0	0	0	499	
12	0	0	0	0	515	
13	0	0	0	0	505	
14	0	0	0	0	496	
15	0	0	0	0	519	
0	0	0	0	0	516	
1	0	0	0	0	514	
2	0	0	0	0	504	
3	0	0	0	0	503	
4	0	0	0	0	505	
5	0	0	0	0	538	
6	0	0	0	0	474	
7	0	0	0	0	449	
8	0	0	0	0	590	
9	0	0	0	0	470	
10	0	0	0	0	535	
11	0	0	0	0	545	
12	0	0	0	0	513	
13	0	0	0	0	518	
14	0	0	0	0	520	
15	0	0	0	0	515	
0	0	0	0	0	512	
1	0	0	0	0	500	
2	0	0	0	0	510	
3	0	0	0	0	516	
4	0	0	0	0	520	
5	0	0	0	0	499	
6	0	0	0	0	475	
7	0	0	0	0	533	
8	0	0	0	0	491	
9	0	0	0	0	483	
10	0	0	0	0	508	
11	0	0	0	0	516	
12	0	0	0	0	510	
13	0	0	0	0	511	
14	0	0	0	0	506	
15	0	0	0	0	509	
0	0	0	0	0	481	
1	0	0	0	0	515	
2	0	0	0	0	509	
3	0	0	0	0	500	
4	0	0	0	0	492	
5	0	0	0	0	540	
6	0	0	0	0	494	
7	0	0	0	0	501	
8	0	0	0	0	510	
9	0	0	0	0	517	
10	0	0	0	0	519	
11	0	0	0	0	511	
12	0	0	0	0	515	
13	0	0	0	0	523	
14	0	0	0	0	505	
15	0	0	0	0	511	
0	0	0	0	0	506	
1	0	0	0	0	523	
2	0	0	0	0	523	
3	0	0	0	0	504	
4	0	0	0	0	510	
5	0	0	0	0	510	
6	0	0	0	0	521	
7	0	0	0	0	518	
8	0	0	0	0	501	
9	0	0	0	0	497	
10	0	0	0	0	517	
11	0	0	0	0	499	
12	0	0	0	0	524	
13	0	0	0	0	493	
14	0	0	0	0	525	
15	0	0	0	0	517	
0	0	0	0	0	467	
1	0	0	0	0	573	
2	0	0	0	0	497	
3	0	0	0	0	459	
4	0	0	0	0	557	
5	0	0	0	0	518	
6	0	0	0	0	485	
7	0	0	0	0	457	
8	0	0	0	0	504	
9	0	0	0	0	519	
10	0	0	0	0	545	
11	0	0	0	0	523	
12	0	0	0	0	503	
13	0	0	0	0	499	
14	0	0	0	0	507	
15	0	0	0	0	528	
0	0	0	0	0	503	
1	0	0	0	0	506	
2	0	0	0	0	514	
3	0	0	0	0	510	
4	0	0	0	0	510	
5	0	0	0	0	517	
6	0	0	0	0	512	
7	0	0	0	0	482	
8	0	0	0	0	510	
9	0	0	0	0	505	
10	0	0	0	0	517	
11	0	0	0	0	516	
12	0	0	0	0	511	
13	0	0	0	0	512	
14	0	0	0	0	512	
15	0	0	0	0	508	
0	0	0	0	0	511	
1	0	0	0	0	517	
2	0	0	0	0	513	
3	0	0	0	0	496	
4	0	0	0	0	529	
5	0	0	0	0	509	
6	0	0	0	0	520	
7	0	0	0	0	493	
8	0	0	0	0	500	
9	0	0	0	0	509	
10	0	0	0	0	502	
11	0	0	0	0	548	
12	0	0	0	0	509	
13	0	0	0	0	527	
14	0	0	0	0	517	
15	0	0	0	0	494	
0	0	0	0	0	502	
1	0	0	0	0	514	
2	0	0	0	0	499	
3	0	0	0	0	500	
4	0	0	0	0	521	
5	0	0	0	0	515	
6	0	0	0	0	510	
7	0	0	0	0	502	
8	0	0	0	0	533	
9	0	0	0	0	499	
10	0	0	0	0	464	
11	0	0	0	0	530	
12	0	0	0	0	511	
13	0	0	0	0	472	
14	0	0	0	0	543	
15	0	0	0	0	506	
0	0	0	0	0	513	
1	0	0	0	0	500	
2	0	0	0	0	503	
3	0	0	0	0	494	
4	0	0	0	0	524	
5	0	0	0	0	507	
6	0	0	0	0	499	
7	0	0	0	0	534	
8	0	0	0	0	508	
9	0	0	0	0	491	
10	0	0	0	0	504	
11	0	0	0	0	515	
12	0	0	0	0	509	
13	0	0	0	0	503	
14	0	0	0	0	523	
15	0	0	0	0	511	
0	0	0	0	0	503	
1	0	0	0	0	510	
2	0	0	0	0	508	
3	0	0	0	0	507	
4	0	0	0	0	507	
5	0	0	0	0	509	
6	0	0	0	0	506	
7	0	0	0	0	509	
8	0	0	0	0	505	
9	0	0	0	0	507	
10	0	0	0	0	507	
11	0	0	0	0	514	
12	0	0	0	0	502	
13	0	0	0	0	501	
14	0	0	0	0	523	
15	0	0	0	0	517	
0	0	0	0	0	504	
1	0	0	0	0	501	
2	0	0	0	0	505	
3	0	0	0	0	518	
4	0	0	0	0	506	
5	0	0	0	0	510	
6	0	0	0	0	514	
7	0	0	0	0	515	
8	0	0	0	0	506	
9	0	0	0	0	501	
10	0	0	0	0	517	
11	0	0	0	0	507	
12	0	0	0	0	512	
13	0	0	0	0	514	
14	0	0	0	0	517	
15	0	0	0	0	510	
0	0	0	0	0	508	
1	0	0	0	0	503	
2	0	0	0	0	521	
3	0	0	0	0	512	
4	0	0	0	0	471	
5	0	0	0	0	479	
6	0	0	0	0	538	
7	0	0	0	0	489	
8	0	0	0	0	522	
9	0	0	0	0	546	
10	0	0	0	0	501	
11	0	0	0	0	504	
12	0	0	0	0	503	
13	0	0	0	0	505	
14	0	0	0	0	494	
15	0	0	0	0	504	
0	0	0	0	0	509	
1	0	0	0	0	504	
2	0	0	0	0	518	
3	0	0	0	0	505	
4	0	0	0	0	512	
5	0	0	0	0	506	
6	0	0	0	0	504	
7	0	0	0	0	514	
8	0	0	0	0	493	
9	0	0	0	0	519	
10	0	0	0	0	511	
11	0	0	0	0	508	
12	0	0	0	0	501	
13	0	0	0	0	510	
14	0	0	0	0	510	
15	0	0	0	0	511	
0	0	0	0	0	499	
1	0	0	0	0	496	
2	0	0	0	0	524	
3	0	0	0	0	500	
4	0	0	0	0	508	
5	0	0	0	0	505	
6	0	0	0	0	534	
7	0	0	0	0	498	
8	0	0	0	0	521	
9	0	0	0	0	493	
10	0	0	0	0	499	
11	0	0	0	0	511	
12	0	0	0	0	517	
13	0	0	0	0	502	
14	0	0	0	0	503	
15	0	0	0	0	514	
0	0	0	0	0	491	
1	0	0	0	0	525	
2	0	0	0	0	514	
3	0	0	0	0	519	
4	0	0	0	0	502	
5	0	0	0	0	516	
6	0	0	0	0	518	
7	0	0	0	0	510	
8	0	0	0	0	492	
9	0	0	0	0	493	
10	0	0	0	0	526	
11	0	0	0	0	498	
12	0	0	0	0	534	
13	0	0	0	0	503	
14	0	0	0	0	479	
15	0	0	0	0	459	
0	0	0	0	0	555	
1	0	0	0	0	495	
2	0	0	0	0	525	
3	0	0	0	0	542	
4	0	0	0	0	501	
5	0	0	0	0	510	
6	0	0	0	0	514	
7	0	0	0	0	512	
8	0	0	0	0	500	
9	0	0	0	0	483	
10	0	0	0	0	513	
11	0	0	0	0	505	
12	0	0	0	0	507	
13	0	0	0	0	507	
14	0	0	0	0	505	
15	0	0	0	0	517	
0	0	0	0	0	504	
1	0	0	0	0	500	
2	0	0	0	0	509	
3	0	0	0	0	512	
4	0	0	0	0	513	
5	0	0	0	0	514	
6	0	0	0	0	497	
7	0	0	0	0	504	
8	0	0	0	0	516	
9	0	0	0	0	505	
10	0	0	0	0	502	
11	0	0	0	0	513	
12	0	0	0	0	506	
13	0	0	0	0	507	
14	0	0	0	0	507	
15	0	0	0	0	507	
0	0	0	0	0	506	
1	0	0	0	0	506	
2	0	0	0	0	503	
3	0	0	0	0	511	
4	0	0	0	0	509	
5	0	0	0	0	517	
6	0	0	0	0	511	
7	0	0	0	0	511	
8	0	0	0	0	513	
9	0	0	0	0	508	
10	0	0	0	0	511	
11	0	0	0	0	501	
12	0	0	0	0	509	
13	0	0	0	0	522	
14	0	0	0	0	494	
15	0	0	0	0	514	
0	0	0	0	0	559	
1	0	0	0	0	515	
2	0	0	0	0	518	
3	0	0	0	0	508	
4	0	0	0	0	500	
5	0	0	0	0	499	
6	0	0	0	0	508	
7	0	0	0	0	518	
8	0	0	0	0	514	
9	0	0	0	0	452	
10	0	0	0	0	514	
11	0	0	0	0	522	
12	0	0	0	0	483	
13	0	0	0	0	522	
14	0	0	0	0	524	
15	0	0	0	0	518	
0	0	0	0	0	500	
1	0	0	0	0	513	
2	0	0	0	0	494	
3	0	0	0	0	497	
4	0	0	0	0	509	
5	0	0	0	0	523	
6	0	0	0	0	510	
7	0	0	0	0	502	
8	0	0	0	0	518	
9	0	0	0	0	496	
10	0	0	0	0	534	
11	0	0	0	0	492	
12	0	0	0	0	499	
13	0	0	0	0	534	
14	0	0	0	0	500	
15	0	0	0	0	519	
0	0	0	0	0	508	
1	0	0	0	0	484	
2	0	0	0	0	518	
3	0	0	0	0	516	
4	0	0	0	0	514	
5	0	0	0	0	479	
6	0	0	0	0	521	
7	0	0	0	0	545	
8	0	0	0	0	515	
9	0	0	0	0	506	
10	0	0	0	0	497	
11	0	0	0	0	494	
12	0	0	0	0	491	
13	0	0	0	0	517	
14	0	0	0	0	508	
15	0	0	0	0	494	
0	0	0	0	0	448	
1	0	0	0	0	553	
2	0	0	0	0	534	
3	0	0	0	0	532	
4	0	0	0	0	525	
5	0	0	0	0	485	
6	0	0	0	0	509	
7	0	0	0	0	514	
8	0	0	0	0	556	
9	0	0	0	0	395	
10	0	0	0	0	485	
11	0	0	0	0	561	
12	0	0	0	0	543	
13	0	0	0	0	551	
14	0	0	0	0	500	
15	0	0	0	0	516	
0	0	0	0	0	530	
1	0	0	0	0	537	
2	0	0	0	0	449	
3	0	0	0	0	530	
4	0	0	0	0	530	
5	0	0	0	0	471	
6	0	0	0	0	531	
7	0	0	0	0	489	
8	0	0	0	0	547	
9	0	0	0	0	538	
10	0	0	0	0	523	
11	0	0	0	0	501	
12	0	0	0	0	567	
13	0	0	0	0	351	
14	0	0	0	0	407	
15	0	0	0	0	468	
0	0	0	0	0	560	
1	0	0	0	0	547	
2	0	0	0	0	488	
3	0	0	0	0	541	
4	0	0	0	0	592	
5	0	0	0	0	563	
6	0	0	0	0	493	
7	0	0	0	0	530	
8	0	0	0	0	492	
9	0	0	0	0	426	
10	0	0	0	0	544	
11	0	0	0	0	455	
12	0	0	0	0	522	
13	0	0	0	0	569	
14	0	0	0	0	558	
15	0	0	0	0	546	
0	0	0	0	0	511	
1	0	0	0	0	440	
2	0	0	0	0	467	
3	0	0	0	0	494	
4	0	0	0	0	525	
5	0	0	0	0	536	
6	0	0	0	0	540	
7	0	0	0	0	516	
8	0	0	0	0	485	
9	0	0	0	0	491	
10	0	0	0	0	487	
11	0	0	0	0	493	
12	0	0	0	0	539	
13	0	0	0	0	536	
14	0	0	0	0	524	
15	0	0	0	0	507	
0	0	0	0	0	488	
1	0	0	0	0	486	
2	0	0	0	0	498	
3	0	0	0	0	518	
4	0	0	0	0	507	
5	0	0	0	0	487	
6	0	0	0	0	562	
7	0	0	0	0	506	
8	0	0	0	0	505	
9	0	0	0	0	458	
10	0	0	0	0	504	
11	0	0	0	0	536	
12	0	0	0	0	487	
13	0	0	0	0	549	
14	0	0	0	0	525	
15	0	0	0	0	484	
0	0	0	0	0	474	
1	0	0	0	0	496	
2	0	0	0	0	514	
3	0	0	0	0	458	
4	0	0	0	0	598	
5	0	0	0	0	488	
6	0	0	0	0	473	
7	0	0	0	0	550	
8	0	0	0	0	480	
9	0	0	0	0	451	
10	0	0	0	0	534	
11	0	0	0	0	519	
12	0	0	0	0	492	
13	0	0	0	0	533	
14	0	0	0	0	534	
15	0	0	0	0	398	
0	0	0	0	0	552	
1	0	0	0	0	498	
2	0	0	0	0	507	
3	0	0	0	0	530	
4	0	0	0	0	509	
5	0	0	0	0	591	
6	0	0	0	0	394	
7	0	0	0	0	632	
8	0	0	0	0	426	
9	0	0	0	0	482	
10	0	0	0	0	596	
11	0	0	0	0	458	
12	0	0	0	0	513	
13	0	0	0	0	583	
14	0	0	0	0	406	
15	0	0	0	0	567	
0	0	0	0	0	499	
1	0	0	0	0	554	
2	0	0	0	0	424	
3	0	0	0	0	499	
4	0	0	0	0	626	
5	0	0	0	0	488	
6	0	0	0	0	448	
7	0	0	0	0	708	
8	0	0	0	0	290	
9	0	0	0	0	583	
10	0	0	0	0	577	
11	0	0	0	0	569	
12	0	0	0	0	518	
13	0	0	0	0	403	
14	0	0	0	0	398	
15	0	0	0	0	616	
0	0	0	0	0	482	
1	0	0	0	0	513	
2	0	0	0	0	518	
3	0	0	0	0	536	
4	0	0	0	0	552	
5	0	0	0	0	499	
6	0	0	0	0	603	
7	0	0	0	0	231	
8	0	0	0	0	520	
9	0	0	0	0	775	
10	0	0	0	0	447	
11	0	0	0	0	517	
12	0	0	0	0	438	
13	0	0	0	0	440	
14	0	0	0	0	545	
15	0	0	0	0	592	
0	0	0	0	0	411	
1	0	0	0	0	601	
2	0	0	0	0	488	
3	0	0	0	0	446	
4	0	0	0	0	483	
5	0	0	0	0	717	
6	0	0	0	0	323	
7	0	0	0	0	728	
8	0	0	0	0	454	
9	0	0	0	0	505	
10	0	0	0	0	502	
11	0	0	0	0	457	
12	0	0	0	0	793	
13	0	0	0	0	400	
14	0	0	0	0	289	
15	0	0	0	0	758	
0	0	0	0	0	728	
1	0	0	0	0	416	
2	0	0	0	0	363	
3	0	0	0	0	426	
4	0	0	0	0	723	
5	0	0	0	0	467	
6	0	0	0	0	296	
7	0	0	0	0	667	
8	0	0	0	0	307	
9	0	0	0	0	565	
10	0	0	0	0	568	
11	0	0	0	0	519	
12	0	0	0	0	782	
13	0	0	0	0	396	
14	0	0	0	0	225	
15	0	0	0	0	650	
0	0	0	0	0	365	
1	0	0	0	0	482	
2	0	0	0	0	737	
3	0	0	0	0	219	
4	0	0	0	0	813	
5	0	0	0	0	262	
6	0	0	0	0	681	
7	0	0	0	0	269	
8	0	0	0	0	563	
9	0	0	0	0	404	
10	0	0	0	0	731	
11	0	0	0	0	466	
12	0	0	0	0	474	
13	0	0	0	0	461	
14	0	0	0	0	477	
15	0	0	0	0	667	
0	0	0	0	0	390	
1	0	0	0	0	619	
2	0	0	0	0	272	
3	0	0	0	0	569	
4	0	0	0	0	664	
5	0	0	0	0	448	
6	0	0	0	0	543	
7	0	0	0	0	489	
8	0	0	0	0	509	
9	0	0	0	0	620	
10	0	0	0	0	215	
11	0	0	0	0	431	
12	0	0	0	0	480	
13	0	0	0	0	489	
14	0	0	0	0	635	
15	0	0	0	0	493	
0	0	0	0	0	531	
1	0	0	0	0	600	
2	0	0	0	0	397	
3	0	0	0	0	564	
4	0	0	0	0	663	
5	0	0	0	0	525	
6	0	0	0	0	547	
7	0	0	0	0	516	
8	0	0	0	0	401	
9	0	0	0	0	604	
10	0	0	0	0	487	
11	0	0	0	0	476	
12	0	0	0	0	555	
13	0	0	0	0	464	
14	0	0	0	0	505	
15	0	0	0	0	533	
0	0	0	0	0	502	
1	0	0	0	0	467	
2	0	0	0	0	439	
3	0	0	0	0	665	
4	0	0	0	0	487	
5	0	0	0	0	475	
6	0	0	0	0	568	
7	0	0	0	0	374	
8	0	0	0	0	545	
9	0	0	0	0	537	
10	0	0	0	0	548	
11	0	0	0	0	551	
12	0	0	0	0	434	
13	0	0	0	0	737	
14	0	0	0	0	329	
15	0	0	0	0	316	
0	0	0	0	0	594	
1	0	0	0	0	511	
2	0	0	0	0	468	
3	0	0	0	0	580	
4	0	0	0	0	521	
5	0	0	0	0	501	
6	0	0	0	0	558	
7	0	0	0	0	336	
8	0	0	0	0	646	
9	0	0	0	0	465	
10	0	0	0	0	323	
11	0	0	0	0	665	
12	0	0	0	0	465	
13	0	0	0	0	498	
14	0	0	0	0	595	
15	0	0	0	0	507	
0	0	0	0	0	405	
1	0	0	0	0	573	
2	0	0	0	0	510	
3	0	0	0	0	433	
4	0	0	0	0	451	
5	0	0	0	0	513	
6	0	0	0	0	464	
7	0	0	0	0	556	
8	0	0	0	0	612	
9	0	0	0	0	569	
10	0	0	0	0	389	
11	0	0	0	0	418	
12	0	0	0	0	483	
13	0	0	0	0	596	
14	0	0	0	0	536	
15	0	0	0	0	563	
0	0	0	0	0	289	
1	0	0	0	0	615	
2	0	0	0	0	476	
3	0	0	0	0	598	
4	0	0	0	0	376	
5	0	0	0	0	802	
6	0	0	0	0	338	
7	0	0	0	0	706	
8	0	0	0	0	509	
9	0	0	0	0	396	
10	0	0	0	0	506	
11	0	0	0	0	449	
12	0	0	0	0	852	
13	0	0	0	0	295	
14	0	0	0	0	411	
15	0	0	0	0	528	
0	0	0	0	0	654	
1	0	0	0	0	304	
2	0	0	0	0	831	
3	0	0	0	0	400	
4	0	0	0	0	458	
5	0	0	0	0	635	
6	0	0	0	0	483	
7	0	0	0	0	619	
8	0	0	0	0	523	
9	0	0	0	0	358	
10	0	0	0	0	721	
11	0	0	0	0	116	
12	0	0	0	0	637	
13	0	0	0	0	467	
14	0	0	0	0	488	
15	0	0	0	0	519	
0	0	0	0	0	552	
1	0	0	0	0	637	
2	0	0	0	0	479	
3	0	0	0	0	610	
4	0	0	0	0	109	
5	0	0	0	0	1022	
6	0	0	0	0	198	
7	0	0	0	0	581	
8	0	0	0	0	447	
9	0	0	0	0	382	
10	0	0	0	0	683	
11	0	0	0	0	240	
12	0	0	0	0	910	
13	0	0	0	0	351	
14	0	0	0	0	732	
15	0	0	0	0	81	
0	0	0	0	0	912	
1	0	0	0	0	447	
2	0	0	0	0	604	
3	0	0	0	0	411	
4	0	0	0	0	573	
5	0	0	0	0	529	
6	0	0	0	0	527	
7	0	0	0	0	475	
8	0	0	0	0	696	
9	0	0	0	0	0	
10	0	0	0	0	643	
11	0	0	0	0	988	
12	0	0	0	0	134	
13	0	0	0	0	711	
14	0	0	0	0	524	
15	0	0	0	0	344	
0	0	0	0	0	909	
1	0	0	0	0	286	
2	0	0	0	0	652	
3	0	0	0	0	504	
4	0	0	0	0	613	
5	0	0	0	0	413	
6	0	0	0	0	630	
7	0	0	0	0	487	
8	0	0	0	0	431	
9	0	0	0	0	677	
10	0	0	0	0	493	
11	0	0	0	0	508	
12	0	0	0	0	449	
13	0	0	0	0	438	
14	0	0	0	0	556	
15	0	0	0	0	507	
0	0	0	0	0	492	
1	0	0	0	0	630	
2	0	0	0	0	436	
3	0	0	0	0	595	
4	0	0	0	0	467	
5	0	0	0	0	610	
6	0	0	0	0	449	
7	0	0	0	0	498	
8	0	0	0	0	542	
9	0	0	0	0	468	
10	0	0	0	0	455	
11	0	0	0	0	571	
12	0	0	0	0	545	
13	0	0	0	0	361	
14	0	0	0	0	532	
15	0	0	0	0	570	
0	0	0	0	0	503	
1	0	0	0	0	550	
2	0	0	0	0	495	
3	0	0	0	0	519	
4	0	0	0	0	598	
5	0	0	0	0	404	
6	0	0	0	0	547	
7	0	0	0	0	566	
8	0	0	0	0	575	
9	0	0	0	0	358	
10	0	0	0	0	569	
11	0	0	0	0	516	
12	0	0	0	0	521	
13	0	0	0	0	551	
14	0	0	0	0	551	
15	0	0	0	0	378	
0	0	0	0	0	533	
1	0	0	0	0	522	
2	0	0	0	0	488	
3	0	0	0	0	587	
4	0	0	0	0	428	
5	0	0	0	0	428	
6	0	0	0	0	564	
7	0	0	0	0	687	
8	0	0	0	0	380	
9	0	0	0	0	433	
10	0	0	0	0	467	
11	0	0	0	0	690	
12	0	0	0	0	437	
13	0	0	0	0	534	
14	0	0	0	0	452	
15	0	0	0	0	561	
0	0	0	0	0	521	
1	0	0	0	0	507	
2	0	0	0	0	368	
3	0	0	0	0	558	
4	0	0	0	0	623	
5	0	0	0	0	512	
6	0	0	0	0	443	
7	0	0	0	0	578	
8	0	0	0	0	523	
9	0	0	0	0	440	
10	0	0	0	0	609	
11	0	0	0	0	533	
12	0	0	0	0	411	
13	0	0	0	0	531	
14	0	0	0	0	492	
15	0	0	0	0	709	
0	0	0	0	0	483	
1	0	0	0	0	449	
2	0	0	0	0	531	
3	0	0	0	0	496	
4	0	0	0	0	537	
5	0	0	0	0	497	
6	0	0	0	0	514	
7	0	0	0	0	495	
8	0	0	0	0	469	
9	0	0	0	0	544	
10	0	0	0	0	553	
11	0	0	0	0	459	
12	0	0	0	0	444	
13	0	0	0	0	568	
14	0	0	0	0	409	
15	0	0	0	0	521	
0	0	0	0	0	465	
1	0	0	0	0	537	
2	0	0	0	0	412	
3	0	0	0	0	564	
4	0	0	0	0	456	
5	0	0	0	0	565	
6	0	0	0	0	446	
7	0	0	0	0	572	
8	0	0	0	0	519	
9	0	0	0	0	532	
10	0	0	0	0	484	
11	0	0	0	0	521	
12	0	0	0	0	531	
13	0	0	0	0	468	
14	0	0	0	0	544	
15	0	0	0	0	556	
0	0	0	0	0	496	
1	0	0	0	0	524	
2	0	0	0	0	483	
3	0	0	0	0	495	
4	0	0	0	0	522	
5	0	0	0	0	543	
6	0	0	0	0	523	
7	0	0	0	0	568	
8	0	0	0	0	454	
9	0	0	0	0	573	
10	0	0	0	0	503	
11	0	0	0	0	518	
12	0	0	0	0	510	
13	0	0	0	0	445	
14	0	0	0	0	579	
15	0	0	0	0	440	
0	0	0	0	0	551	
1	0	0	0	0	547	
2	0	0	0	0	422	
3	0	0	0	0	497	
4	0	0	0	0	560	
5	0	0	0	0	525	
6	0	0	0	0	468	
7	0	0	0	0	495	
8	0	0	0	0	578	
9	0	0	0	0	446	
10	0	0	0	0	589	
11	0	0	0	0	527	
12	0	0	0	0	465	
13	0	0	0	0	556	
14	0	0	0	0	479	
15	0	0	0	0	551	
0	0	0	0	0	473	
1	0	0	0	0	495	
2	0	0	0	0	491	
3	0	0	0	0	478	
4	0	0	0	0	688	
5	0	0	0	0	425	
6	0	0	0	0	603	
7	0	0	0	0	292	
8	0	0	0	0	575	
9	0	0	0	0	559	
10	0	0	0	0	528	
11	0	0	0	0	468	
12	0	0	0	0	689	
13	0	0	0	0	264	
14	0	0	0	0	635	
15	0	0	0	0	421	
0	0	0	0	0	550	
1	0	0	0	0	538	
2	0	0	0	0	474	
3	0	0	0	0	522	
4	0	0	0	0	516	
5	0	0	0	0	472	
6	0	0	0	0	432	
7	0	0	0	0	614	
8	0	0	0	0	425	
9	0	0	0	0	613	
10	0	0	0	0	333	
11	0	0	0	0	498	
12	0	0	0	0	557	
13	0	0	0	0	535	
14	0	0	0	0	313	
15	0	0	0	0	633	
0	0	0	0	0	535	
1	0	0	0	0	319	
2	0	0	0	0	646	
3	0	0	0	0	380	
4	0	0	0	0	705	
5	0	0	0	0	265	
6	0	0	0	0	483	
7	0	0	0	0	668	
8	0	0	0	0	352	
9	0	0	0	0	674	
10	0	0	0	0	475	
11	0	0	0	0	481	
12	0	0	0	0	628	
13	0	0	0	0	436	
14	0	0	0	0	541	
15	0	0	0	0	399	
0	0	0	0	0	590	
1	0	0	0	0	576	
2	0	0	0	0	409	
3	0	0	0	0	494	
4	0	0	0	0	431	
5	0	0	0	0	456	
6	0	0	0	0	685	
7	0	0	0	0	481	
8	0	0	0	0	408	
9	0	0	0	0	658	
10	0	0	0	0	458	
11	0	0	0	0	483	
12	0	0	0	0	447	
13	0	0	0	0	739	
14	0	0	0	0	556	
15	0	0	0	0	367	
0	0	0	0	0	348	
1	0	0	0	0	670	
2	0	0	0	0	590	
3	0	0	0	0	522	
4	0	0	0	0	242	
5	0	0	0	0	537	
6	0	0	0	0	655	
7	0	0	0	0	464	
8	0	0	0	0	565	
9	0	0	0	0	448	
10	0	0	0	0	529	
11	0	0	0	0	553	
12	0	0	0	0	577	
13	0	0	0	0	465	
14	0	0	0	0	430	
15	0	0	0	0	548	
0	0	0	0	0	436	
1	0	0	0	0	571	
2	0	0	0	0	531	
3	0	0	0	0	574	
4	0	0	0	0	171	
5	0	0	0	0	707	
6	0	0	0	0	644	
7	0	0	0	0	497	
8	0	0	0	0	123	
9	0	0	0	0	757	
10	0	0	0	0	473	
11	0	0	0	0	321	
12	0	0	0	0	594	
13	0	0	0	0	663	
14	0	0	0	0	583	
15	0	0	0	0	87	
0	0	0	0	0	500	
1	0	0	0	0	568	
2	0	0	0	0	600	
3	0	0	0	0	496	
4	0	0	0	0	531	
5	0	0	0	0	644	
6	0	0	0	0	98	
7	0	0	0	0	414	
8	0	0	0	0	880	
9	0	0	0	0	156	
10	0	0	0	0	652	
11	0	0	0	0	246	
12	0	0	0	0	536	
13	0	0	0	0	609	
14	0	0	0	0	496	
15	0	0	0	0	476	
0	0	0	0	0	646	
1	0	0	0	0	731	
2	0	0	0	0	568	
3	0	0	0	0	410	
4	0	0	0	0	590	
5	0	0	0	0	544	
6	0	0	0	0	598	
7	0	0	0	0	47	
8	0	0	0	0	632	
9	0	0	0	0	308	
10	0	0	0	0	744	
11	0	0	0	0	457	
12	0	0	0	0	355	
13	0	0	0	0	746	
14	0	0	0	0	533	
15	0	0	0	0	447	
0	0	0	0	0	812	
1	0	0	0	0	343	
2	0	0	0	0	469	
3	0	0	0	0	561	
4	0	0	0	0	609	
5	0	0	0	0	406	
6	0	0	0	0	902	
7	0	0	0	0	84	
8	0	0	0	0	785	
9	0	0	0	0	384	
10	0	0	0	0	480	
11	0	0	0	0	278	
12	0	0	0	0	620	
13	0	0	0	0	166	
14	0	0	0	0	1022	
15	0	0	0	0	0	
0	0	0	0	0	644	
1	0	0	0	0	284	
2	0	0	0	0	590	
3	0	0	0	0	538	
4	0	0	0	0	477	
5	0	0	0	0	747	
6	0	0	0	0	554	
7	0	0	0	0	272	
8	0	0	0	0	502	
9	0	0	0	0	449	
10	0	0	0	0	696	
11	0	0	0	0	671	
12	0	0	0	0	401	
13	0	0	0	0	407	
14	0	0	0	0	661	
15	0	0	0	0	477	
0	0	0	0	0	690	
1	0	0	0	0	412	
2	0	0	0	0	546	
3	0	0	0	0	608	
4	0	0	0	0	403	
5	0	0	0	0	527	
6	0	0	0	0	554	
7	0	0	0	0	401	
8	0	0	0	0	699	
9	0	0	0	0	399	
10	0	0	0	0	455	
11	0	0	0	0	733	
12	0	0	0	0	315	
13	0	0	0	0	371	
14	0	0	0	0	632	
15	0	0	0	0	552	
0	0	0	0	0	407	
1	0	0	0	0	580	
2	0	0	0	0	481	
3	0	0	0	0	581	
4	0	0	0	0	645	
5	0	0	0	0	395	
6	0	0	0	0	525	
7	0	0	0	0	490	
8	0	0	0	0	630	
9	0	0	0	0	302	
10	0	0	0	0	689	
11	0	0	0	0	435	
12	0	0	0	0	619	
13	0	0	0	0	352	
14	0	0	0	0	504	
15	0	0	0	0	770	
0	0	0	0	0	212	
1	0	0	0	0	705	
2	0	0	0	0	468	
3	0	0	0	0	516	
4	0	0	0	0	551	
5	0	0	0	0	477	
6	0	0	0	0	549	
7	0	0	0	0	598	
8	0	0	0	0	439	
9	0	0	0	0	468	
10	0	0	0	0	688	
11	0	0	0	0	354	
12	0	0	0	0	510	
13	0	0	0	0	560	
14	0	0	0	0	542	
15	0	0	0	0	565	
0	0	0	0	0	599	
1	0	0	0	0	507	
2	0	0	0	0	235	
3	0	0	0	0	668	
4	0	0	0	0	545	
5	0	0	0	0	657	
6	0	0	0	0	259	
7	0	0	0	0	489	
8	0	0	0	0	410	
9	0	0	0	0	566	
10	0	0	0	0	446	
11	0	0	0	0	701	
12	0	0	0	0	238	
13	0	0	0	0	721	
14	0	0	0	0	405	
15	0	0	0	0	401	
0	0	0	0	0	607	
1	0	0	0	0	533	
2	0	0	0	0	606	
3	0	0	0	0	452	
4	0	0	0	0	415	
5	0	0	0	0	481	
6	0	0	0	0	639	
7	0	0	0	0	520	
8	0	0	0	0	323	
9	0	0	0	0	743	
10	0	0	0	0	371	
11	0	0	0	0	553	
12	0	0	0	0	802	
13	0	0	0	0	210	
14	0	0	0	0	605	
15	0	0	0	0	413	
0	0	0	0	0	483	
1	0	0	0	0	680	
2	0	0	0	0	480	
3	0	0	0	0	583	
4	0	0	0	0	621	
5	0	0	0	0	387	
6	0	0	0	0	587	
7	0	0	0	0	483	
8	0	0	0	0	514	
9	0	0	0	0	533	
10	0	0	0	0	557	
11	0	0	0	0	404	
12	0	0	0	0	562	
13	0	0	0	0	589	
14	0	0	0	0	374	
15	0	0	0	0	617	
0	0	0	0	0	196	
1	0	0	0	0	534	
2	0	0	0	0	710	
3	0	0	0	0	358	
4	0	0	0	0	672	
5	0	0	0	0	260	
6	0	0	0	0	607	
7	0	0	0	0	441	
8	0	0	0	0	763	
9	0	0	0	0	267	
10	0	0	0	0	537	
11	0	0	0	0	679	
12	0	0	0	0	687	
13	0	0	0	0	47	
14	0	0	0	0	476	
15	0	0	0	0	692	
0	0	0	0	0	732	
1	0	0	0	0	256	
2	0	0	0	0	573	
3	0	0	0	0	441	
4	0	0	0	0	552	
5	0	0	0	0	622	
6	0	0	0	0	322	
7	0	0	0	0	668	
8	0	0	0	0	471	
9	0	0	0	0	570	
10	0	0	0	0	488	
11	0	0	0	0	697	
12	0	0	0	0	406	
13	0	0	0	0	476	
14	0	0	0	0	537	
15	0	0	0	0	396	
0	0	0	0	0	723	
1	0	0	0	0	599	
2	0	0	0	0	192	
3	0	0	0	0	562	
4	0	0	0	0	620	
5	0	0	0	0	543	
6	0	0	0	0	409	
7	0	0	0	0	599	
8	0	0	0	0	314	
9	0	0	0	0	540	
10	0	0	0	0	600	
11	0	0	0	0	550	
12	0	0	0	0	638	
13	0	0	0	0	232	
14	0	0	0	0	526	
15	0	0	0	0	534	
0	0	0	0	0	500	
1	0	0	0	0	604	
2	0	0	0	0	534	
3	0	0	0	0	375	
4	0	0	0	0	627	
5	0	0	0	0	147	
6	0	0	0	0	568	
7	0	0	0	0	593	
8	0	0	0	0	551	
9	0	0	0	0	481	
10	0	0	0	0	716	
11	0	0	0	0	273	
12	0	0	0	0	549	
13	0	0	0	0	477	
14	0	0	0	0	592	
15	0	0	0	0	298	
0	0	0	0	0	739	
1	0	0	0	0	717	
2	0	0	0	0	417	
3	0	0	0	0	266	
4	0	0	0	0	763	
5	0	0	0	0	410	
6	0	0	0	0	735	
7	0	0	0	0	524	
8	0	0	0	0	343	
9	0	0	0	0	481	
10	0	0	0	0	696	
11	0	0	0	0	153	
12	0	0	0	0	718	
13	0	0	0	0	178	
14	0	0	0	0	1022	
15	0	0	0	0	276	
0	0	0	0	0	447	
1	0	0	0	0	841	
2	0	0	0	0	111	
3	0	0	0	0	849	
4	0	0	0	0	124	
5	0	0	0	0	280	
6	0	0	0	0	671	
7	0	0	0	0	566	
8	0	0	0	0	538	
9	0	0	0	0	527	
10	0	0	0	0	738	
11	0	0	0	0	20	
12	0	0	0	0	668	
13	0	0	0	0	429	
14	0	0	0	0	166	
15	0	0	0	0	712	
0	0	0	0	0	613	
1	0	0	0	0	609	
2	0	0	0	0	208	
3	0	0	0	0	632	
4	0	0	0	0	291	
5	0	0	0	0	603	
6	0	0	0	0	258	
7	0	0	0	0	527	
8	0	0	0	0	656	
9	0	0	0	0	592	
10	0	0	0	0	531	
11	0	0	0	0	810	
12	0	0	0	0	226	
13	0	0	0	0	696	
14	0	0	0	0	481	
15	0	0	0	0	645	
0	0	0	0	0	387	
1	0	0	0	0	398	
2	0	0	0	0	674	
3	0	0	0	0	480	
4	0	0	0	0	482	
5	0	0	0	0	413	
6	0	0	0	0	617	
7	0	0	0	0	511	
8	0	0	0	0	441	
9	0	0	0	0	606	
10	0	0	0	0	432	
11	0	0	0	0	341	
12	0	0	0	0	792	
13	0	0	0	0	0	
14	0	0	0	0	1022	
15	0	0	0	0	319	
0	0	0	0	0	455	
1	0	0	0	0	458	
2	0	0	0	0	900	
3	0	0	0	0	103	
4	0	0	0	0	536	
5	0	0	0	0	499	
6	0	0	0	0	446	
7	0	0	0	0	560	
8	0	0	0	0	749	
9	0	0	0	0	158	
10	0	0	0	0	478	
11	0	0	0	0	923	
12	0	0	0	0	259	
13	0	0	0	0	541	
14	0	0	0	0	516	
15	0	0	0	0	371	
0	0	0	0	0	396	
1	0	0	0	0	52	
2	0	0	0	0	846	
3	0	0	0	0	409	
4	0	0	0	0	423	
5	0	0	0	0	1022	
6	0	0	0	0	492	
7	0	0	0	0	0	
8	0	0	0	0	620	
9	0	0	0	0	578	
10	0	0	0	0	815	
11	0	0	0	0	131	
12	0	0	0	0	545	
13	0	0	0	0	265	
14	0	0	0	0	760	
15	0	0	0	0	535	
0	0	0	0	0	528	
1	0	0	0	0	636	
2	0	0	0	0	290	
3	0	0	0	0	509	
4	0	0	0	0	688	
5	0	0	0	0	507	
6	0	0	0	0	686	
7	0	0	0	0	228	
8	0	0	0	0	446	
9	0	0	0	0	592	
10	0	0	0	0	456	
11	0	0	0	0	622	
12	0	0	0	0	388	
13	0	0	0	0	640	
14	0	0	0	0	315	
15	0	0	0	0	537	
0	0	0	0	0	507	
1	0	0	0	0	403	
2	0	0	0	0	587	
3	0	0	0	0	514	
4	0	0	0	0	553	
5	0	0	0	0	536	
6	0	0	0	0	364	
7	0	0	0	0	548	
8	0	0	0	0	530	
9	0	0	0	0	547	
10	0	0	0	0	528	
11	0	0	0	0	371	
12	0	0	0	0	407	
13	0	0	0	0	669	
14	0	0	0	0	428	
15	0	0	0	0	628	
0	0	0	0	0	467	
1	0	0	0	0	616	
2	0	0	0	0	448	
3	0	0	0	0	425	
4	0	0	0	0	545	
5	0	0	0	0	382	
6	0	0	0	0	533	
7	0	0	0	0	632	
8	0	0	0	0	353	
9	0	0	0	0	543	
10	0	0	0	0	555	
11	0	0	0	0	252	
12	0	0	0	0	705	
13	0	0	0	0	590	
14	0	0	0	0	449	
15	0	0	0	0	427	
0	0	0	0	0	566	
1	0	0	0	0	516	
2	0	0	0	0	446	
3	0	0	0	0	527	
4	0	0	0	0	524	
5	0	0	0	0	638	
6	0	0	0	0	453	
7	0	0	0	0	417	
8	0	0	0	0	782	
9	0	0	0	0	352	
10	0	0	0	0	467	
11	0	0	0	0	513	
12	0	0	0	0	580	
13	0	0	0	0	562	
14	0	0	0	0	398	
15	0	0	0	0	551	
0	0	0	0	0	584	
1	0	0	0	0	541	
2	0	0	0	0	444	
3	0	0	0	0	441	
4	0	0	0	0	402	
5	0	0	0	0	884	
6	0	0	0	0	406	
7	0	0	0	0	405	
8	0	0	0	0	602	
9	0	0	0	0	473	
10	0	0	0	0	560	
11	0	0	0	0	469	
12	0	0	0	0	684	
13	0	0	0	0	305	
14	0	0	0	0	510	
15	0	0	0	0	662	
0	0	0	0	0	382	
1	0	0	0	0	460	
2	0	0	0	0	633	
3	0	0	0	0	508	
4	0	0	0	0	485	
5	0	0	0	0	574	
6	0	0	0	0	531	
7	0	0	0	0	708	
8	0	0	0	0	581	
9	0	0	0	0	244	
10	0	0	0	0	662	
11	0	0	0	0	544	
12	0	0	0	0	424	
13	0	0	0	0	621	
14	0	0	0	0	377	
15	0	0	0	0	607	
0	0	0	0	0	422	
1	0	0	0	0	581	
2	0	0	0	0	289	
3	0	0	0	0	600	
4	0	0	0	0	374	
5	0	0	0	0	627	
6	0	0	0	0	536	
7	0	0	0	0	443	
8	0	0	0	0	503	
9	0	0	0	0	487	
10	0	0	0	0	674	
11	0	0	0	0	507	
12	0	0	0	0	512	
13	0	0	0	0	297	
14	0	0	0	0	590	
15	0	0	0	0	448	
0	0	0	0	0	441	
1	0	0	0	0	340	
2	0	0	0	0	763	
3	0	0	0	0	473	
4	0	0	0	0	606	
5	0	0	0	0	168	
6	0	0	0	0	591	
7	0	0	0	0	401	
8	0	0	0	0	529	
9	0	0	0	0	549	
10	0	0	0	0	509	
11	0	0	0	0	636	
12	0	0	0	0	362	
13	0	0	0	0	503	
14	0	0	0	0	475	
15	0	0	0	0	543	
0	0	0	0	0	540	
1	0	0	0	0	639	
2	0	0	0	0	489	
3	0	0	0	0	302	
4	0	0	0	0	503	
5	0	0	0	0	613	
6	0	0	0	0	430	
7	0	0	0	0	593	
8	0	0	0	0	569	
9	0	0	0	0	179	
10	0	0	0	0	718	
11	0	0	0	0	582	
12	0	0	0	0	546	
13	0	0	0	0	493	
14	0	0	0	0	531	
15	0	0	0	0	559	
0	0	0	0	0	454	
1	0	0	0	0	610	
2	0	0	0	0	630	
3	0	0	0	0	429	
4	0	0	0	0	613	
5	0	0	0	0	323	
6	0	0	0	0	443	
7	0	0	0	0	677	
8	0	0	0	0	515	
9	0	0	0	0	668	
10	0	0	0	0	382	
11	0	0	0	0	445	
12	0	0	0	0	585	
13	0	0	0	0	569	
14	0	0	0	0	509	
15	0	0	0	0	186	
0	0	0	0	0	768	
1	0	0	0	0	359	
2	0	0	0	0	570	
3	0	0	0	0	485	
4	0	0	0	0	574	
5	0	0	0	0	445	
6	0	0	0	0	433	
7	0	0	0	0	497	
8	0	0	0	0	584	
9	0	0	0	0	591	
10	0	0	0	0	550	
11	0	0	0	0	225	
12	0	0	0	0	620	
13	0	0	0	0	480	
14	0	0	0	0	339	
15	0	0	0	0	922	
0	0	0	0	0	259	
1	0	0	0	0	639	
2	0	0	0	0	398	
3	0	0	0	0	589	
4	0	0	0	0	468	
5	0	0	0	0	424	
6	0	0	0	0	708	
7	0	0	0	0	207	
8	0	0	0	0	649	
9	0	0	0	0	539	
10	0	0	0	0	179	
11	0	0	0	0	447	
12	0	0	0	0	946	
13	0	0	0	0	539	
14	0	0	0	0	193	
15	0	0	0	0	473	
0	0	0	0	0	395	
1	0	0	0	0	769	
2	0	0	0	0	397	
3	0	0	0	0	665	
4	0	0	0	0	593	
5	0	0	0	0	460	
6	0	0	0	0	378	
7	0	0	0	0	500	
8	0	0	0	0	236	
9	0	0	0	0	775	
10	0	0	0	0	348	
11	0	0	0	0	909	
12	0	0	0	0	204	
13	0	0	0	0	461	
14	0	0	0	0	802	
15	0	0	0	0	450	
0	0	0	0	0	432	
1	0	0	0	0	691	
2	0	0	0	0	488	
3	0	0	0	0	864	
4	0	0	0	0	91	
5	0	0	0	0	481	
6	0	0	0	0	490	
7	0	0	0	0	658	
8	0	0	0	0	588	
9	0	0	0	0	641	
10	0	0	0	0	416	
11	0	0	0	0	334	
12	0	0	0	0	604	
13	0	0	0	0	369	
14	0	0	0	0	435	
15	0	0	0	0	702	
0	0	0	0	0	606	
1	0	0	0	0	401	
2	0	0	0	0	568	
3	0	0	0	0	226	
4	0	0	0	0	588	
5	0	0	0	0	789	
6	0	0	0	0	152	
7	0	0	0	0	575	
8	0	0	0	0	616	
9	0	0	0	0	613	
10	0	0	0	0	432	
11	0	0	0	0	584	
12	0	0	0	0	722	
13	0	0	0	0	377	
14	0	0	0	0	489	
15	0	0	0	0	857	
0	0	0	0	0	480	
1	0	0	0	0	18	
2	0	0	0	0	680	
3	0	0	0	0	488	
4	0	0	0	0	364	
5	0	0	0	0	834	
6	0	0	0	0	188	
7	0	0	0	0	691	
8	0	0	0	0	355	
9	0	0	0	0	581	
10	0	0	0	0	568	
11	0	0	0	0	483	
12	0	0	0	0	790	
13	0	0	0	0	414	
14	0	0	0	0	493	
15	0	0	0	0	365	
0	0	0	0	0	516	
1	0	0	0	0	573	
2	0	0	0	0	572	
3	0	0	0	0	527	
4	0	0	0	0	530	
5	0	0	0	0	442	
6	0	0	0	0	440	
7	0	0	0	0	503	
8	0	0	0	0	576	
9	0	0	0	0	532	
10	0	0	0	0	511	
11	0	0	0	0	523	
12	0	0	0	0	513	
13	0	0	0	0	467	
14	0	0	0	0	433	
15	0	0	0	0	492	
0	0	0	0	0	528	
1	0	0	0	0	510	
2	0	0	0	0	563	
3	0	0	0	0	517	
4	0	0	0	0	490	
5	0	0	0	0	484	
6	0	0	0	0	488	
7	0	0	0	0	529	
8	0	0	0	0	537	
9	0	0	0	0	530	
10	0	0	0	0	483	
11	0	0	0	0	508	
12	0	0	0	0	498	
13	0	0	0	0	512	
14	0	0	0	0	494	
15	0	0	0	0	510	
0	0	0	0	0	512	
1	0	0	0	0	515	
2	0	0	0	0	521	
3	0	0	0	0	518	
4	0	0	0	0	508	
5	0	0	0	0	497	
6	0	0	0	0	487	
7	0	0	0	0	501	
8	0	0	0	0	536	
9	0	0	0	0	487	
10	0	0	0	0	453	
11	0	0	0	0	539	
12	0	0	0	0	510	
13	0	0	0	0	451	
14	0	0	0	0	503	
15	0	0	0	0	515	
0	0	0	0	0	495	
1	0	0	0	0	506	
2	0	0	0	0	505	
3	0	0	0	0	505	
4	0	0	0	0	504	
5	0	0	0	0	503	
6	0	0	0	0	508	
7	0	0	0	0	512	
8	0	0	0	0	515	
9	0	0	0	0	519	
10	0	0	0	0	512	
11	0	0	0	0	523	
12	0	0	0	0	520	
13	0	0	0	0	545	
14	0	0	0	0	445	
15	0	0	0	0	523	
0	0	0	0	0	496	
1	0	0	0	0	511	
2	0	0	0	0	506	
3	0	0	0	0	540	
4	0	0	0	0	499	
5	0	0	0	0	516	
6	0	0	0	0	505	
7	0	0	0	0	511	
8	0	0	0	0	510	
9	0	0	0	0	540	
10	0	0	0	0	502	
11	0	0	0	0	490	
12	0	0	0	0	494	
13	0	0	0	0	517	
14	0	0	0	0	497	
15	0	0	0	0	509	
0	0	0	0	0	502	
1	0	0	0	0	490	
2	0	0	0	0	470	
3	0	0	0	0	572	
4	0	0	0	0	556	
5	0	0	0	0	519	
6	0	0	0	0	533	
7	0	0	0	0	519	
8	0	0	0	0	464	
9	0	0	0	0	503	
10	0	0	0	0	495	
11	0	0	0	0	485	
12	0	0	0	0	494	
13	0	0	0	0	588	
14	0	0	0	0	498	
15	0	0	0	0	493	
0	0	0	0	0	541	
1	0	0	0	0	524	
2	0	0	0	0	507	
3	0	0	0	0	503	
4	0	0	0	0	518	
5	0	0	0	0	504	
6	0	0	0	0	518	
7	0	0	0	0	514	
8	0	0	0	0	511	
9	0	0	0	0	503	
10	0	0	0	0	509	
11	0	0	0	0	504	
12	0	0	0	0	498	
13	0	0	0	0	509	
14	0	0	0	0	508	
15	0	0	0	0	513	
0	0	0	0	0	500	
1	0	0	0	0	500	
2	0	0	0	0	522	
3	0	0	0	0	518	
4	0	0	0	0	504	
5	0	0	0	0	512	
6	0	0	0	0	508	
7	0	0	0	0	507	
8	0	0	0	0	496	
9	0	0	0	0	501	
10	0	0	0	0	504	
11	0	0	0	0	510	
12	0	0	0	0	516	
13	0	0	0	0	515	
14	0	0	0	0	528	
15	0	0	0	0	550	
0	0	0	0	0	498	
1	0	0	0	0	477	
2	0	0	0	0	490	
3	0	0	0	0	511	
4	0	0	0	0	502	
5	0	0	0	0	510	
6	0	0	0	0	491	
7	0	0	0	0	486	
8	0	0	0	0	485	
9	0	0	0	0	554	
10	0	0	0	0	556	
11	0	0	0	0	510	
12	0	0	0	0	411	
13	0	0	0	0	569	
14	0	0	0	0	572	
15	0	0	0	0	543	
0	0	0	0	0	473	
1	0	0	0	0	499	
2	0	0	0	0	486	
3	0	0	0	0	477	
4	0	0	0	0	534	
5	0	0	0	0	551	
6	0	0	0	0	527	
7	0	0	0	0	513	
8	0	0	0	0	486	
9	0	0	0	0	492	
10	0	0	0	0	496	
11	0	0	0	0	502	
12	0	0	0	0	515	
13	0	0	0	0	508	
14	0	0	0	0	495	
15	0	0	0	0	514	
0	0	0	0	0	495	
1	0	0	0	0	508	
2	0	0	0	0	524	
3	0	0	0	0	490	
4	0	0	0	0	537	
5	0	0	0	0	525	
6	0	0	0	0	526	
7	0	0	0	0	529	
8	0	0	0	0	472	
9	0	0	0	0	499	
10	0	0	0	0	500	
11	0	0	0	0	511	
12	0	0	0	0	507	
13	0	0	0	0	504	
14	0	0	0	0	513	
15	0	0	0	0	510	
0	0	0	0	0	504	
1	0	0	0	0	506	
2	0	0	0	0	499	
3	0	0	0	0	511	
4	0	0	0	0	505	
5	0	0	0	0	507	
6	0	0	0	0	510	
7	0	0	0	0	514	
8	0	0	0	0	508	
9	0	0	0	0	513	
10	0	0	0	0	503	
11	0	0	0	0	521	
12	0	0	0	0	495	
13	0	0	0	0	508	
14	0	0	0	0	517	
15	0	0	0	0	515	
0	0	0	0	0	496	
1	0	0	0	0	506	
2	0	0	0	0	515	
3	0	0	0	0	513	
4	0	0	0	0	483	
5	0	0	0	0	599	
6	0	0	0	0	466	
7	0	0	0	0	483	
8	0	0	0	0	544	
9	0	0	0	0	499	
10	0	0	0	0	499	
11	0	0	0	0	493	
12	0	0	0	0	505	
13	0	0	0	0	515	
14	0	0	0	0	504	
15	0	0	0	0	512	
0	0	0	0	0	511	
1	0	0	0	0	510	
2	0	0	0	0	512	
3	0	0	0	0	494	
4	0	0	0	0	506	
5	0	0	0	0	517	
6	0	0	0	0	502	
7	0	0	0	0	504	
8	0	0	0	0	508	
9	0	0	0	0	513	
10	0	0	0	0	511	
11	0	0	0	0	499	
12	0	0	0	0	512	
13	0	0	0	0	502	
14	0	0	0	0	498	
15	0	0	0	0	492	
0	0	0	0	0	494	
1	0	0	0	0	520	
2	0	0	0	0	516	
3	0	0	0	0	502	
4	0	0	0	0	518	
5	0	0	0	0	496	
6	0	0	0	0	480	
7	0	0	0	0	492	
8	0	0	0	0	538	
9	0	0	0	0	491	
10	0	0	0	0	525	
11	0	0	0	0	440	
12	0	0	0	0	515	
13	0	0	0	0	534	
14	0	0	0	0	487	
15	0	0	0	0	544	
0	0	0	0	0	507	
1	0	0	0	0	555	
2	0	0	0	0	502	
3	0	0	0	0	491	
4	0	0	0	0	527	
5	0	0	0	0	512	
6	0	0	0	0	455	
7	0	0	0	0	523	
8	0	0	0	0	523	
9	0	0	0	0	504	
10	0	0	0	0	447	
11	0	0	0	0	541	
12	0	0	0	0	490	
13	0	0	0	0	527	
14	0	0	0	0	358	
15	0	0	0	0	547	
0	0	0	0	0	522	
1	0	0	0	0	339	
2	0	0	0	0	660	
3	0	0	0	0	552	
4	0	0	0	0	466	
5	0	0	0	0	513	
6	0	0	0	0	505	
7	0	0	0	0	446	
8	0	0	0	0	500	
9	0	0	0	0	470	
10	0	0	0	0	482	
11	0	0	0	0	721	
12	0	0	0	0	395	
13	0	0	0	0	448	
14	0	0	0	0	608	
15	0	0	0	0	561	
0	0	0	0	0	602	
1	0	0	0	0	423	
2	0	0	0	0	453	
3	0	0	0	0	529	
4	0	0	0	0	495	
5	0	0	0	0	413	
6	0	0	0	0	521	
7	0	0	0	0	460	
8	0	0	0	0	564	
9	0	0	0	0	497	
10	0	0	0	0	652	
11	0	0	0	0	452	
12	0	0	0	0	537	
13	0	0	0	0	482	
14	0	0	0	0	438	
15	0	0	0	0	547	
0	0	0	0	0	552	
1	0	0	0	0	443	
2	0	0	0	0	408	
3	0	0	0	0	465	
4	0	0	0	0	567	
5	0	0	0	0	428	
6	0	0	0	0	519	
7	0	0	0	0	553	
8	0	0	0	0	538	
9	0	0	0	0	394	
10	0	0	0	0	674	
11	0	0	0	0	456	
12	0	0	0	0	436	
13	0	0	0	0	552	
14	0	0	0	0	444	
15	0	0	0	0	509	
0	0	0	0	0	553	
1	0	0	0	0	497	
2	0	0	0	0	561	
3	0	0	0	0	437	
4	0	0	0	0	472	
5	0	0	0	0	545	
6	0	0	0	0	439	
7	0	0	0	0	649	
8	0	0	0	0	505	
9	0	0	0	0	567	
10	0	0	0	0	393	
11	0	0	0	0	543	
12	0	0	0	0	528	
13	0	0	0	0	633	
14	0	0	0	0	429	
15	0	0	0	0	562	
0	0	0	0	0	545	
1	0	0	0	0	385	
2	0	0	0	0	420	
3	0	0	0	0	471	
4	0	0	0	0	608	
5	0	0	0	0	523	
6	0	0	0	0	561	
7	0	0	0	0	435	
8	0	0	0	0	472	
9	0	0	0	0	473	
10	0	0	0	0	451	
11	0	0	0	0	499	
12	0	0	0	0	563	
13	0	0	0	0	511	
14	0	0	0	0	490	
15	0	0	0	0	379	
0	0	0	0	0	386	
1	0	0	0	0	665	
2	0	0	0	0	604	
3	0	0	0	0	586	
4	0	0	0	0	614	
5	0	0	0	0	335	
6	0	0	0	0	392	
7	0	0	0	0	786	
8	0	0	0	0	311	
9	0	0	0	0	524	
10	0	0	0	0	256	
11	0	0	0	0	846	
12	0	0	0	0	504	
13	0	0	0	0	497	
14	0	0	0	0	543	
15	0	0	0	0	180	
0	0	0	0	0	847	
1	0	0	0	0	725	
2	0	0	0	0	538	
3	0	0	0	0	418	
4	0	0	0	0	579	
5	0	0	0	0	267	
6	0	0	0	0	324	
7	0	0	0	0	1022	
8	0	0	0	0	553	
9	0	0	0	0	86	
10	0	0	0	0	561	
11	0	0	0	0	359	
12	0	0	0	0	788	
13	0	0	0	0	572	
14	0	0	0	0	214	
15	0	0	0	0	1022	
0	0	0	0	0	47	
1	0	0	0	0	639	
2	0	0	0	0	189	
3	0	0	0	0	324	
4	0	0	0	0	832	
5	0	0	0	0	1022	
6	0	0	0	0	0	
7	0	0	0	0	1023	
8	0	0	0	0	0	
9	0	0	0	0	952	
10	0	0	0	0	850	
11	0	0	0	0	0	
12	0	0	0	0	1022	
13	0	0	0	0	288	
14	0	0	0	0	1022	
15	0	0	0	0	508	
0	0	0	0	0	0	
1	0	0	0	0	299	
2	0	0	0	0	1017	
3	0	0	0	0	300	
4	0	0	0	0	339	
5	0	0	0	0	185	
6	0	0	0	0	743	
7	0	0	0	0	816	
8	0	0	0	0	0	
9	0	0	0	0	761	
10	0	0	0	0	448	
11	0	0	0	0	96	
12	0	0	0	0	670	
13	0	0	0	0	697	
14	0	0	0	0	0	
15	0	0	0	0	1022	
0	0	0	0	0	180	
1	0	0	0	0	1022	
2	0	0	0	0	432	
3	0	0	0	0	822	
4	0	0	0	0	148	
5	0	0	0	0	828	
6	0	0	0	0	262	
7	0	0	0	0	424	
8	0	0	0	0	832	
9	0	0	0	0	517	
10	0	0	0	0	1022	
11	0	0	0	0	236	
12	0	0	0	0	596	
13	0	0	0	0	262	
14	0	0	0	0	248	
15	0	0	0	0	464	
0	0	0	0	0	400	
1	0	0	0	0	999	
2	0	0	0	0	488	
3	0	0	0	0	393	
4	0	0	0	0	510	
5	0	0	0	0	505	
6	0	0	0	0	531	
7	0	0	0	0	435	
8	0	0	0	0	637	
9	0	0	0	0	518	
10	0	0	0	0	273	
11	0	0	0	0	654	
12	0	0	0	0	406	
13	0	0	0	0	583	
14	0	0	0	0	632	
15	0	0	0	0	370	
0	0	0	0	0	434	
1	0	0	0	0	746	
2	0	0	0	0	470	
3	0	0	0	0	558	
4	0	0	0	0	583	
5	0	0	0	0	499	
6	0	0	0	0	491	
7	0	0	0	0	1022	
8	0	0	0	0	419	
9	0	0	0	0	288	
10	0	0	0	0	374	
11	0	0	0	0	571	
12	0	0	0	0	650	
13	0	0	0	0	348	
14	0	0	0	0	787	
15	0	0	0	0	925	
0	0	0	0	0	0	
1	0	0	0	0	488	
2	0	0	0	0	623	
3	0	0	0	0	323	
4	0	0	0	0	257	
5	0	0	0	0	600	
6	0	0	0	0	864	
7	0	0	0	0	584	
8	0	0	0	0	528	
9	0	0	0	0	494	
10	0	0	0	0	381	
11	0	0	0	0	513	
12	0	0	0	0	597	
13	0	0	0	0	720	
14	0	0	0	0	736	
15	0	0	0	0	140	
0	0	0	0	0	655	
1	0	0	0	0	534	
2	0	0	0	0	384	
3	0	0	0	0	602	
4	0	0	0	0	595	
5	0	0	0	0	728	
6	0	0	0	0	92	
7	0	0	0	0	655	
8	0	0	0	0	0	
9	0	0	0	0	1022	
10	0	0	0	0	911	
11	0	0	0	0	143	
12	0	0	0	0	750	
13	0	0	0	0	111	
14	0	0	0	0	896	
15	0	0	0	0	103	
0	0	0	0	0	780	
1	0	0	0	0	512	
2	0	0	0	0	515	
3	0	0	0	0	677	
4	0	0	0	0	682	
5	0	0	0	0	477	
6	0	0	0	0	556	
7	0	0	0	0	50	
8	0	0	0	0	472	
9	0	0	0	0	909	
10	0	0	0	0	290	
11	0	0	0	0	158	
12	0	0	0	0	715	
13	0	0	0	0	503	
14	0	0	0	0	299	
15	0	0	0	0	696	
0	0	0	0	0	0	
1	0	0	0	0	1022	
2	0	0	0	0	0	
3	0	0	0	0	471	
4	0	0	0	0	810	
5	0	0	0	0	400	
6	0	0	0	0	603	
7	0	0	0	0	233	
8	0	0	0	0	501	
9	0	0	0	0	595	
10	0	0	0	0	1022	
11	0	0	0	0	160	
12	0	0	0	0	0	
13	0	0	0	0	1022	
14	0	0	0	0	388	
15	0	0	0	0	457	
0	0	0	0	0	609	
1	0	0	0	0	210	
2	0	0	0	0	627	
3	0	0	0	0	686	
4	0	0	0	0	470	
5	0	0	0	0	487	
6	0	0	0	0	498	
7	0	0	0	0	616	
8	0	0	0	0	338	
9	0	0	0	0	744	
10	0	0	0	0	368	
11	0	0	0	0	517	
12	0	0	0	0	424	
13	0	0	0	0	558	
14	0	0	0	0	434	
15	0	0	0	0	617	
0	0	0	0	0	423	
1	0	0	0	0	376	
2	0	0	0	0	546	
3	0	0	0	0	796	
4	0	0	0	0	141	
5	0	0	0	0	676	
6	0	0	0	0	591	
7	0	0	0	0	340	
8	0	0	0	0	835	
9	0	0	0	0	7	
10	0	0	0	0	1021	
11	0	0	0	0	101	
12	0	0	0	0	672	
13	0	0	0	0	297	
14	0	0	0	0	910	
15	0	0	0	0	381	
0	0	0	0	0	632	
1	0	0	0	0	0	
2	0	0	0	0	624	
3	0	0	0	0	884	
4	0	0	0	0	69	
5	0	0	0	0	921	
6	0	0	0	0	342	
7	0	0	0	0	696	
8	0	0	0	0	529	
9	0	0	0	0	230	
10	0	0	0	0	760	
11	0	0	0	0	921	
12	0	0	0	0	361	
13	0	0	0	0	275	
14	0	0	0	0	655	
15	0	0	0	0	474	
0	0	0	0	0	199	
1	0	0	0	0	158	
2	0	0	0	0	936	
3	0	0	0	0	810	
4	0	0	0	0	0	
5	0	0	0	0	1022	
6	0	0	0	0	622	
7	0	0	0	0	504	
8	0	0	0	0	725	
9	0	0	0	0	332	
10	0	0	0	0	569	
11	0	0	0	0	926	
12	0	0	0	0	187	
13	0	0	0	0	357	
14	0	0	0	0	104	
15	0	0	0	0	1022	
0	0	0	0	0	437	
1	0	0	0	0	321	
2	0	0	0	0	714	
3	0	0	0	0	0	
4	0	0	0	0	864	
5	0	0	0	0	133	
6	0	0	0	0	981	
7	0	0	0	0	0	
8	0	0	0	0	664	
9	0	0	0	0	123	
10	0	0	0	0	1022	
11	0	0	0	0	232	
12	0	0	0	0	458	
13	0	0	0	0	748	
14	0	0	0	0	674	
15	0	0	0	0	326	
0	0	0	0	0	868	
1	0	0	0	0	565	
2	0	0	0	0	0	
3	0	0	0	0	1022	
4	0	0	0	0	156	
5	0	0	0	0	559	
6	0	0	0	0	369	
7	0	0	0	0	436	
8	0	0	0	0	522	
9	0	0	0	0	207	
10	0	0	0	0	1022	
11	0	0	0	0	424	
12	0	0	0	0	480	
13	0	0	0	0	558	
14	0	0	0	0	888	
15	0	0	0	0	174	
0	0	0	0	0	361	
1	0	0	0	0	857	
2	0	0	0	0	555	
3	0	0	0	0	170	
4	0	0	0	0	745	
5	0	0	0	0	305	
6	0	0	0	0	543	
7	0	0	0	0	659	
8	0	0	0	0	499	
9	0	0	0	0	496	
10	0	0	0	0	402	
11	0	0	0	0	449	
12	0	0	0	0	616	
13	0	0	0	0	409	
14	0	0	0	0	630	
15	0	0	0	0	588	
0	0	0	0	0	243	
1	0	0	0	0	737	
2	0	0	0	0	409	
3	0	0	0	0	438	
4	0	0	0	0	868	
5	0	0	0	0	93	
6	0	0	0	0	676	
7	0	0	0	0	157	
8	0	0	0	0	992	
9	0	0	0	0	325	
10	0	0	0	0	527	
11	0	0	0	0	336	
12	0	0	0	0	672	
13	0	0	0	0	860	
14	0	0	0	0	269	
15	0	0	0	0	755	
0	0	0	0	0	203	
1	0	0	0	0	581	
2	0	0	0	0	431	
3	0	0	0	0	425	
4	0	0	0	0	686	
5	0	0	0	0	142	
6	0	0	0	0	923	
7	0	0	0	0	376	
8	0	0	0	0	430	
9	0	0	0	0	642	
10	0	0	0	0	518	
11	0	0	0	0	688	
12	0	0	0	0	469	
13	0	0	0	0	230	
14	0	0	0	0	940	
15	0	0	0	0	534	
0	0	0	0	0	655	
1	0	0	0	0	467	
2	0	0	0	0	944	
3	0	0	0	0	0	
4	0	0	0	0	515	
5	0	0	0	0	180	
6	0	0	0	0	968	
7	0	0	0	0	590	
8	0	0	0	0	117	
9	0	0	0	0	1022	
10	0	0	0	0	0	
11	0	0	0	0	979	
12	0	0	0	0	1022	
13	0	0	0	0	265	
14	0	0	0	0	479	
15	0	0	0	0	1022	
0	0	0	0	0	0	
1	0	0	0	0	451	
2	0	0	0	0	1022	
3	0	0	0	0	0	
4	0	0	0	0	491	
5	0	0	0	0	829	
6	0	0	0	0	216	
7	0	0	0	0	1009	
8	0	0	0	0	121	
9	0	0	0	0	982	
10	0	0	0	0	0	
11	0	0	0	0	739	
12	0	0	0	0	655	
13	0	0	0	0	371	
14	0	0	0	0	483	
15	0	0	0	0	586	
0	0	0	0	0	0	
1	0	0	0	0	1022	
2	0	0	0	0	561	
3	0	0	0	0	0	
4	0	0	0	0	1022	
5	0	0	0	0	0	
6	0	0	0	0	431	
7	0	0	0	0	975	
8	0	0	0	0	0	
9	0	0	0	0	833	
10	0	0	0	0	0	
11	0	0	0	0	728	
12	0	0	0	0	473	
13	0	0	0	0	403	
14	0	0	0	0	706	
15	0	0	0	0	491	
0	0	0	0	0	462	
1	0	0	0	0	233	
2	0	0	0	0	767	
3	0	0	0	0	523	
4	0	0	0	0	0	
5	0	0	0	0	625	
6	0	0	0	0	524	
7	0	0	0	0	543	
8	0	0	0	0	382	
9	0	0	0	0	647	
10	0	0	0	0	452	
11	0	0	0	0	777	
12	0	0	0	0	301	
13	0	0	0	0	643	
14	0	0	0	0	440	
15	0	0	0	0	624	
0	0	0	0	0	433	
1	0	0	0	0	376	
2	0	0	0	0	767	
3	0	0	0	0	273	
4	0	0	0	0	237	
5	0	0	0	0	1020	
6	0	0	0	0	383	
7	0	0	0	0	836	
8	0	0	0	0	140	
9	0	0	0	0	613	
10	0	0	0	0	659	
11	0	0	0	0	316	
12	0	0	0	0	746	
13	0	0	0	0	594	
14	0	0	0	0	224	
15	0	0	0	0	886	
0	0	0	0	0	123	
1	0	0	0	0	651	
2	0	0	0	0	448	
3	0	0	0	0	353	
4	0	0	0	0	898	
5	0	0	0	0	227	
6	0	0	0	0	744	
7	0	0	0	0	318	
8	0	0	0	0	716	
9	0	0	0	0	127	
10	0	0	0	0	860	
11	0	0	0	0	557	
12	0	0	0	0	629	
13	0	0	0	0	428	
14	0	0	0	0	615	
15	0	0	0	0	118	
0	0	0	0	0	775	
1	0	0	0	0	398	
2	0	0	0	0	376	
3	0	0	0	0	980	
4	0	0	0	0	493	
5	0	0	0	0	520	
6	0	0	0	0	603	
7	0	0	0	0	678	
8	0	0	0	0	470	
9	0	0	0	0	467	
10	0	0	0	0	843	
11	0	0	0	0	720	
12	0	0	0	0	0	
13	0	0	0	0	973	
14	0	0	0	0	437	
15	0	0	0	0	414	
0	0	0	0	0	646	
1	0	0	0	0	758	
2	0	0	0	0	829	
3	0	0	0	0	127	
4	0	0	0	0	0	
5	0	0	0	0	1022	
6	0	0	0	0	355	
7	0	0	0	0	365	
8	0	0	0	0	973	
9	0	0	0	0	0	
10	0	0	0	0	828	
11	0	0	0	0	522	
12	0	0	0	0	390	
13	0	0	0	0	449	
14	0	0	0	0	1022	
15	0	0	0	0	39	
0	0	0	0	0	657	
1	0	0	0	0	598	
2	0	0	0	0	0	
3	0	0	0	0	1010	
4	0	0	0	0	425	
5	0	0	0	0	893	
6	0	0	0	0	24	
7	0	0	0	0	790	
8	0	0	0	0	27	
9	0	0	0	0	839	
10	0	0	0	0	499	
11	0	0	0	0	696	
12	0	0	0	0	535	
13	0	0	0	0	410	
14	0	0	0	0	723	
15	0	0	0	0	295	
0	0	0	0	0	699	
1	0	0	0	0	75	
2	0	0	0	0	1022	
3	0	0	0	0	152	
4	0	0	0	0	409	
5	0	0	0	0	348	
6	0	0	0	0	636	
7	0	0	0	0	791	
8	0	0	0	0	249	
9	0	0	0	0	644	
10	0	0	0	0	427	
11	0	0	0	0	432	
12	0	0	0	0	561	
13	0	0	0	0	352	
14	0	0	0	0	515	
15	0	0	0	0	680	
0	0	0	0	0	579	
1	0	0	0	0	472	
2	0	0	0	0	532	
3	0	0	0	0	372	
4	0	0	0	0	906	
5	0	0	0	0	0	
6	0	0	0	0	918	
7	0	0	0	0	240	
8	0	0	0	0	464	
9	0	0	0	0	512	
10	0	0	0	0	779	
11	0	0	0	0	456	
12	0	0	0	0	546	
13	0	0	0	0	224	
14	0	0	0	0	691	
15	0	0	0	0	300	
0	0	0	0	0	546	
1	0	0	0	0	452	
2	0	0	0	0	351	
3	0	0	0	0	355	
4	0	0	0	0	812	
5	0	0	0	0	496	
6	0	0	0	0	412	
7	0	0	0	0	399	
8	0	0	0	0	566	
9	0	0	0	0	620	
10	0	0	0	0	653	
11	0	0	0	0	259	
12	0	0	0	0	539	
13	0	0	0	0	450	
14	0	0	0	0	516	
15	0	0	0	0	529	
0	0	0	0	0	558	
1	0	0	0	0	480	
2	0	0	0	0	607	
3	0	0	0	0	696	
4	0	0	0	0	353	
5	0	0	0	0	236	
6	0	0	0	0	966	
7	0	0	0	0	267	
8	0	0	0	0	524	
9	0	0	0	0	547	
10	0	0	0	0	435	
11	0	0	0	0	636	
12	0	0	0	0	580	
13	0	0	0	0	431	
14	0	0	0	0	576	
15	0	0	0	0	389	
0	0	0	0	0	650	
1	0	0	0	0	371	
2	0	0	0	0	458	
3	0	0	0	0	584	
4	0	0	0	0	453	
5	0	0	0	0	393	
6	0	0	0	0	699	
7	0	0	0	0	463	
8	0	0	0	0	476	
9	0	0	0	0	527	
10	0	0	0	0	654	
11	0	0	0	0	479	
12	0	0	0	0	478	
13	0	0	0	0	472	
14	0	0	0	0	539	
15	0	0	0	0	420	
0	0	0	0	0	652	
1	0	0	0	0	487	
2	0	0	0	0	373	
3	0	0	0	0	537	
4	0	0	0	0	560	
5	0	0	0	0	555	
6	0	0	0	0	493	
7	0	0	0	0	440	
8	0	0	0	0	495	
9	0	0	0	0	595	
10	0	0	0	0	147	
11	0	0	0	0	867	
12	0	0	0	0	519	
13	0	0	0	0	301	
14	0	0	0	0	931	
15	0	0	0	0	0	
0	0	0	0	0	777	
1	0	0	0	0	712	
2	0	0	0	0	115	
3	0	0	0	0	958	
4	0	0	0	0	387	
5	0	0	0	0	186	
6	0	0	0	0	1022	
7	0	0	0	0	0	
8	0	0	0	0	1022	
9	0	0	0	0	640	
10	0	0	0	0	0	
11	0	0	0	0	891	
12	0	0	0	0	710	
13	0	0	0	0	255	
14	0	0	0	0	900	
15	0	0	0	0	334	
0	0	0	0	0	553	
1	0	0	0	0	175	
2	0	0	0	0	338	
3	0	0	0	0	736	
4	0	0	0	0	539	
5	0	0	0	0	436	
6	0	0	0	0	563	
7	0	0	0	0	484	
8	0	0	0	0	587	
9	0	0	0	0	747	
10	0	0	0	0	608	
11	0	0	0	0	649	
12	0	0	0	0	0	
13	0	0	0	0	1022	
14	0	0	0	0	0	
15	0	0	0	0	1022	
0	0	0	0	0	494	
1	0	0	0	0	76	
2	0	0	0	0	1022	
3	0	0	0	0	121	
4	0	0	0	0	345	
5	0	0	0	0	333	
6	0	0	0	0	780	
7	0	0	0	0	401	
8	0	0	0	0	320	
9	0	0	0	0	383	
10	0	0	0	0	574	
11	0	0	0	0	1023	
12	0	0	0	0	0	
13	0	0	0	0	484	
14	0	0	0	0	670	
15	0	0	0	0	210	
0	0	0	0	0	285	
1	0	0	0	0	619	
2	0	0	0	0	997	
3	0	0	0	0	360	
4	0	0	0	0	0	
5	0	0	0	0	948	
6	0	0	0	0	401	
7	0	0	0	0	950	
8	0	0	0	0	396	
9	0	0	0	0	454	
10	0	0	0	0	613	
11	0	0	0	0	123	
12	0	0	0	0	310	
13	0	0	0	0	735	
14	0	0	0	0	707	
15	0	0	0	0	715	
0	0	0	0	0	25	
1	0	0	0	0	1022	
2	0	0	0	0	0	
3	0	0	0	0	779	
4	0	0	0	0	484	
5	0	0	0	0	335	
6	0	0	0	0	261	
7	0	0	0	0	1022	
8	0	0	0	0	263	
9	0	0	0	0	361	
10	0	0	0	0	717	
11	0	0	0	0	313	
12	0	0	0	0	467	
13	0	0	0	0	571	
14	0	0	0	0	545	
15	0	0	0	0	363	
0	0	0	0	0	741	
1	0	0	0	0	476	
2	0	0	0	0	397	
3	0	0	0	0	472	
4	0	0	0	0	448	
5	0	0	0	0	473	
6	0	0	0	0	580	
7	0	0	0	0	603	
8	0	0	0	0	521	
9	0	0	0	0	674	
10	0	0	0	0	226	
11	0	0	0	0	828	
12	0	0	0	0	367	
13	0	0	0	0	688	
14	0	0	0	0	332	
15	0	0	0	0	543	
0	0	0	0	0	763	
1	0	0	0	0	266	
2	0	0	0	0	326	
3	0	0	0	0	660	
4	0	0	0	0	374	
5	0	0	0	0	620	
6	0	0	0	0	472	
7	0	0	0	0	437	
8	0	0	0	0	369	
9	0	0	0	0	656	
10	0	0	0	0	372	
11	0	0	0	0	567	
12	0	0	0	0	118	
13	0	0	0	0	973	
14	0	0	0	0	550	
15	0	0	0	0	606	
0	0	0	0	0	462	
1	0	0	0	0	721	
2	0	0	0	0	209	
3	0	0	0	0	798	
4	0	0	0	0	603	
5	0	0	0	0	617	
6	0	0	0	0	345	
7	0	0	0	0	407	
8	0	0	0	0	386	
9	0	0	0	0	623	
10	0	0	0	0	154	
11	0	0	0	0	1022	
12	0	0	0	0	0	
13	0	0	0	0	947	
14	0	0	0	0	529	
15	0	0	0	0	749	
0	0	0	0	0	0	
1	0	0	0	0	1022	
2	0	0	0	0	602	
3	0	0	0	0	0	
4	0	0	0	0	800	
5	0	0	0	0	862	
6	0	0	0	0	0	
7	0	0	0	0	1023	
8	0	0	0	0	95	
9	0	0	0	0	432	
10	0	0	0	0	517	
11	0	0	0	0	630	
12	0	0	0	0	0	
13	0	0	0	0	1022	
14	0	0	0	0	295	
15	0	0	0	0	217	
0	0	0	0	0	435	
1	0	0	0	0	1022	
2	0	0	0	0	272	
3	0	0	0	0	463	
4	0	0	0	0	923	
5	0	0	0	0	265	
6	0	0	0	0	591	
7	0	0	0	0	342	
8	0	0	0	0	536	
9	0	0	0	0	840	
10	0	0	0	0	407	
11	0	0	0	0	745	
12	0	0	0	0	423	
13	0	0	0	0	1022	
14	0	0	0	0	131	
15	0	0	0	0	677	
0	0	0	0	0	457	
1	0	0	0	0	508	
2	0	0	0	0	804	
3	0	0	0	0	153	
4	0	0	0	0	319	
5	0	0	0	0	562	
6	0	0	0	0	912	
7	0	0	0	0	551	
8	0	0	0	0	21	
9	0	0	0	0	713	
10	0	0	0	0	363	
11	0	0	0	0	786	
12	0	0	0	0	468	
13	0	0	0	0	380	
14	0	0	0	0	384	
15	0	0	0	0	591	
0	0	0	0	0	470	
1	0	0	0	0	462	
2	0	0	0	0	574	
3	0	0	0	0	478	
4	0	0	0	0	455	
5	0	0	0	0	595	
6	0	0	0	0	555	
7	0	0	0	0	408	
8	0	0	0	0	622	
9	0	0	0	0	417	
10	0	0	0	0	401	
11	0	0	0	0	862	
12	0	0	0	0	57	
13	0	0	0	0	703	
14	0	0	0	0	409	
15	0	0	0	0	380	
0	0	0	0	0	728	
1	0	0	0	0	399	
2	0	0	0	0	429	
3	0	0	0	0	317	
4	0	0	0	0	311	
5	0	0	0	0	1022	
6	0	0	0	0	539	
7	0	0	0	0	334	
8	0	0	0	0	529	
9	0	0	0	0	47	
10	0	0	0	0	1022	
11	0	0	0	0	384	
12	0	0	0	0	384	
13	0	0	0	0	407	
14	0	0	0	0	598	
15	0	0	0	0	632	
0	0	0	0	0	386	
1	0	0	0	0	246	
2	0	0	0	0	809	
3	0	0	0	0	526	
4	0	0	0	0	476	
5	0	0	0	0	809	
6	0	0	0	0	266	
7	0	0	0	0	479	
8	0	0	0	0	534	
9	0	0	0	0	759	
10	0	0	0	0	110	
11	0	0	0	0	1021	
12	0	0	0	0	282	
13	0	0	0	0	999	
14	0	0	0	0	0	
15	0	0	0	0	407	
0	0	0	0	0	956	
1	0	0	0	0	284	
2	0	0	0	0	641	
3	0	0	0	0	516	
4	0	0	0	0	337	
5	0	0	0	0	566	
6	0	0	0	0	1022	
7	0	0	0	0	284	
8	0	0	0	0	486	
9	0	0	0	0	252	
10	0	0	0	0	792	
11	0	0	0	0	428	
12	0	0	0	0	334	
13	0	0	0	0	304	
14	0	0	0	0	931	
15	0	0	0	0	115	
0	0	0	0	0	0	
1	0	0	0	0	878	
2	0	0	0	0	495	
3	0	0	0	0	241	
4	0	0	0	0	1022	
5	0	0	0	0	0	
6	0	0	0	0	1018	
7	0	0	0	0	216	
8	0	0	0	0	573	
9	0	0	0	0	86	
10	0	0	0	0	848	
11	0	0	0	0	443	
12	0	0	0	0	0	
13	0	0	0	0	821	
14	0	0	0	0	639	
15	0	0	0	0	275	
0	0	0	0	0	766	
1	0	0	0	0	0	
2	0	0	0	0	1022	
3	0	0	0	0	0	
4	0	0	0	0	1022	
5	0	0	0	0	18	
6	0	0	0	0	991	
7	0	0	0	0	238	
8	0	0	0	0	658	
9	0	0	0	0	407	
10	0	0	0	0	553	
11	0	0	0	0	455	
12	0	0	0	0	139	
13	0	0	0	0	712	
14	0	0	0	0	524	
15	0	0	0	0	484	
0	0	0	0	0	523	
1	0	0	0	0	435	
2	0	0	0	0	542	
3	0	0	0	0	489	
4	0	0	0	0	371	
5	0	0	0	0	612	
6	0	0	0	0	504	
7	0	0	0	0	372	
8	0	0	0	0	580	
9	0	0	0	0	600	
10	0	0	0	0	607	
11	0	0	0	0	59	
12	0	0	0	0	833	
13	0	0	0	0	576	
14	0	0	0	0	485	
15	0	0	0	0	797	
0	0	0	0	0	171	
1	0	0	0	0	605	
2	0	0	0	0	652	
3	0	0	0	0	306	
4	0	0	0	0	643	
5	0	0	0	0	588	
6	0	0	0	0	331	
7	0	0	0	0	542	
8	0	0	0	0	681	
9	0	0	0	0	151	
10	0	0	0	0	725	
11	0	0	0	0	80	
12	0	0	0	0	1011	
13	0	0	0	0	512	
14	0	0	0	0	0	
15	0	0	0	0	840	
0	0	0	0	0	63	
1	0	0	0	0	1002	
2	0	0	0	0	293	
3	0	0	0	0	771	
4	0	0	0	0	155	
5	0	0	0	0	504	
6	0	0	0	0	173	
7	0	0	0	0	1022	
8	0	0	0	0	170	
9	0	0	0	0	518	
10	0	0	0	0	690	
11	0	0	0	0	446	
12	0	0	0	0	423	
13	0	0	0	0	828	
14	0	0	0	0	457	
15	0	0	0	0	244	
0	0	0	0	0	630	
1	0	0	0	0	361	
2	0	0	0	0	393	
3	0	0	0	0	887	
4	0	0	0	0	244	
5	0	0	0	0	615	
6	0	0	0	0	750	
7	0	0	0	0	588	
8	0	0	0	0	77	
9	0	0	0	0	1021	
10	0	0	0	0	647	
11	0	0	0	0	672	
12	0	0	0	0	768	
13	0	0	0	0	86	
14	0	0	0	0	321	
15	0	0	0	0	1023	
0	0	0	0	0	216	
1	0	0	0	0	833	
2	0	0	0	0	382	
3	0	0	0	0	420	
4	0	0	0	0	514	
5	0	0	0	0	390	
6	0	0	0	0	334	
7	0	0	0	0	730	
8	0	0	0	0	704	
9	0	0	0	0	264	
10	0	0	0	0	605	
11	0	0	0	0	546	
12	0	0	0	0	255	
13	0	0	0	0	0	
14	0	0	0	0	783	
15	0	0	0	0	1023	
0	0	0	0	0	0	
1	0	0	0	0	480	
2	0	0	0	0	759	
3	0	0	0	0	0	
4	0	0	0	0	843	
5	0	0	0	0	149	
6	0	0	0	0	954	
7	0	0	0	0	283	
8	0	0	0	0	259	
9	0	0	0	0	1022	
10	0	0	0	0	460	
11	0	0	0	0	387	
12	0	0	0	0	586	
13	0	0	0	0	763	
14	0	0	0	0	0	
15	0	0	0	0	864	
0	0	0	0	0	821	
1	0	0	0	0	232	
2	0	0	0	0	470	
3	0	0	0	0	961	
4	0	0	0	0	478	
5	0	0	0	0	87	
6	0	0	0	0	576	
7	0	0	0	0	703	
8	0	0	0	0	579	
9	0	0	0	0	840	
10	0	0	0	0	517	
11	0	0	0	0	329	
12	0	0	0	0	633	
13	0	0	0	0	481	
14	0	0	0	0	183	
15	0	0	0	0	751	
0	0	0	0	0	421	
1	0	0	0	0	815	
2	0	0	0	0	599	
3	0	0	0	0	14	
4	0	0	0	0	670	
5	0	0	0	0	611	
6	0	0	0	0	408	
7	0	0	0	0	513	
8	0	0	0	0	580	
9	0	0	0	0	263	
10	0	0	0	0	689	
11	0	0	0	0	471	
12	0	0	0	0	517	
13	0	0	0	0	638	
14	0	0	0	0	549	
15	0	0	0	0	659	
0	0	0	0	0	543	
1	0	0	0	0	475	
2	0	0	0	0	340	
3	0	0	0	0	418	
4	0	0	0	0	148	
5	0	0	0	0	876	
6	0	0	0	0	315	
7	0	0	0	0	539	
8	0	0	0	0	507	
9	0	0	0	0	610	
10	0	0	0	0	453	
11	0	0	0	0	366	
12	0	0	0	0	708	
13	0	0	0	0	509	
14	0	0	0	0	569	
15	0	0	0	0	361	
0	0	0	0	0	481	
1	0	0	0	0	432	
2	0	0	0	0	644	
3	0	0	0	0	416	
4	0	0	0	0	616	
5	0	0	0	0	455	
6	0	0	0	0	486	
7	0	0	0	0	545	
8	0	0	0	0	496	
9	0	0	0	0	607	
10	0	0	0	0	455	
11	0	0	0	0	390	
12	0	0	0	0	541	
13	0	0	0	0	444	
14	0	0	0	0	453	
15	0	0	0	0	605	
0	0	0	0	0	476	
1	0	0	0	0	571	
2	0	0	0	0	594	
3	0	0	0	0	397	
4	0	0	0	0	538	
5	0	0	0	0	427	
6	0	0	0	0	377	
7	0	0	0	0	616	
8	0	0	0	0	315	
9	0	0	0	0	744	
10	0	0	0	0	95	
11	0	0	0	0	852	
12	0	0	0	0	424	
13	0	0	0	0	369	
14	0	0	0	0	281	
15	0	0	0	0	1016	
0	0	0	0	0	165	
1	0	0	0	0	910	
2	0	0	0	0	0	
3	0	0	0	0	1022	
4	0	0	0	0	767	
5	0	0	0	0	0	
6	0	0	0	0	1022	
7	0	0	0	0	508	
8	0	0	0	0	297	
9	0	0	0	0	511	
10	0	0	0	0	631	
11	0	0	0	0	120	
12	0	0	0	0	881	
13	0	0	0	0	263	
14	0	0	0	0	531	
15	0	0	0	0	374	
0	0	0	0	0	595	
1	0	0	0	0	169	
2	0	0	0	0	836	
3	0	0	0	0	460	
4	0	0	0	0	653	
5	0	0	0	0	570	
6	0	0	0	0	197	
7	0	0	0	0	179	
8	0	0	0	0	1022	
9	0	0	0	0	0	
10	0	0	0	0	869	
11	0	0	0	0	598	
12	0	0	0	0	380	
13	0	0	0	0	409	
14	0	0	0	0	1022	
15	0	0	0	0	333	
0	0	0	0	0	351	
1	0	0	0	0	926	
2	0	0	0	0	79	
3	0	0	0	0	835	
4	0	0	0	0	23	
5	0	0	0	0	833	
6	0	0	0	0	689	
7	0	0	0	0	0	
8	0	0	0	0	700	
9	0	0	0	0	579	
10	0	0	0	0	1022	
11	0	0	0	0	316	
12	0	0	0	0	0	
13	0	0	0	0	463	
14	0	0	0	0	552	
15	0	0	0	0	743	
0	0	0	0	0	331	
1	0	0	0	0	127	
2	0	0	0	0	757	
3	0	0	0	0	305	
4	0	0	0	0	1022	
5	0	0	0	0	262	
6	0	0	0	0	429	
7	0	0	0	0	469	
8	0	0	0	0	653	
9	0	0	0	0	295	
10	0	0	0	0	500	
11	0	0	0	0	601	
12	0	0	0	0	70	
13	0	0	0	0	1022	
14	0	0	0	0	88	
15	0	0	0	0	753	
0	0	0	0	0	323	
1	0	0	0	0	237	
2	0	0	0	0	562	
3	0	0	0	0	877	
4	0	0	0	0	0	
5	0	0	0	0	955	
6	0	0	0	0	285	
7	0	0	0	0	572	
8	0	0	0	0	468	
9	0	0	0	0	182	
10	0	0	0	0	1022	
11	0	0	0	0	0	
12	0	0	0	0	365	
13	0	0	0	0	555	
14	0	0	0	0	1022	
15	0	0	0	0	0	
0	0	0	0	0	696	
1	0	0	0	0	653	
2	0	0	0	0	130	
3	0	0	0	0	751	
4	0	0	0	0	346	
5	0	0	0	0	460	
6	0	0	0	0	469	
7	0	0	0	0	624	
8	0	0	0	0	515	
9	0	0	0	0	433	
10	0	0	0	0	567	
11	0	0	0	0	500	
12	0	0	0	0	345	
13	0	0	0	0	684	
14	0	0	0	0	540	
15	0	0	0	0	423	
0	0	0	0	0	614	
1	0	0	0	0	254	
2	0	0	0	0	812	
3	0	0	0	0	231	
4	0	0	0	0	590	
5	0	0	0	0	782	
6	0	0	0	0	264	
7	0	0	0	0	575	
8	0	0	0	0	795	
9	0	0	0	0	120	
10	0	0	0	0	378	
11	0	0	0	0	643	
12	0	0	0	0	413	
13	0	0	0	0	545	
14	0	0	0	0	682	
15	0	0	0	0	348	
0	0	0	0	0	647	
1	0	0	0	0	180	
2	0	0	0	0	592	
3	0	0	0	0	125	
4	0	0	0	0	1022	
5	0	0	0	0	406	
6	0	0	0	0	881	
7	0	0	0	0	218	
8	0	0	0	0	321	
9	0	0	0	0	927	
10	0	0	0	0	308	
11	0	0	0	0	752	
12	0	0	0	0	289	
13	0	0	0	0	563	
14	0	0	0	0	309	
15	0	0	0	0	910	
0	0	0	0	0	169	
1	0	0	0	0	319	
2	0	0	0	0	432	
3	0	0	0	0	791	
4	0	0	0	0	163	
5	0	0	0	0	516	
6	0	0	0	0	978	
7	0	0	0	0	455	
8	0	0	0	0	895	
9	0	0	0	0	105	
10	0	0	0	0	611	
11	0	0	0	0	1022	
12	0	0	0	0	0	
13	0	0	0	0	498	
14	0	0	0	0	915	
15	0	0	0	0	0	
0	0	0	0	0	689	
1	0	0	0	0	1016	
2	0	0	0	0	0	
3	0	0	0	0	1022	
4	0	0	0	0	126	
5	0	0	0	0	666	
6	0	0	0	0	714	
7	0	0	0	0	215	
8	0	0	0	0	851	
9	0	0	0	0	229	
10	0	0	0	0	613	
11	0	0	0	0	552	
12	0	0	0	0	824	
13	0	0	0	0	388	
14	0	0	0	0	195	
15	0	0	0	0	1022	
0	0	0	0	0	618	
1	0	0	0	0	184	
2	0	0	0	0	819	
3	0	0	0	0	113	
4	0	0	0	0	198	
5	0	0	0	0	888	
6	0	0	0	0	650	
7	0	0	0	0	29	
8	0	0	0	0	370	
9	0	0	0	0	550	
10	0	0	0	0	1022	
11	0	0	0	0	310	
12	0	0	0	0	486	
13	0	0	0	0	213	
14	0	0	0	0	565	
15	0	0	0	0	669	
0	0	0	0	0	519	
1	0	0	0	0	478	
2	0	0	0	0	508	
3	0	0	0	0	572	
4	0	0	0	0	496	
5	0	0	0	0	498	
6	0	0	0	0	523	
7	0	0	0	0	370	
8	0	0	0	0	623	
9	0	0	0	0	511	
10	0	0	0	0	579	
11	0	0	0	0	559	
12	0	0	0	0	520	
13	0	0	0	0	327	
14	0	0	0	0	798	
15	0	0	0	0	432	
0	0	0	0	0	614	
1	0	0	0	0	354	
2	0	0	0	0	699	
3	0	0	0	0	575	
4	0	0	0	0	414	
5	0	0	0	0	143	
6	0	0	0	0	1004	
7	0	0	0	0	220	
8	0	0	0	0	550	
9	0	0	0	0	524	
10	0	0	0	0	608	
11	0	0	0	0	575	
12	0	0	0	0	418	
13	0	0	0	0	565	
14	0	0	0	0	418	
15	0	0	0	0	0	
0	0	0	0	0	1022	
1	0	0	0	0	897	
2	0	0	0	0	0	
3	0	0	0	0	338	
4	0	0	0	0	1022	
5	0	0	0	0	268	
6	0	0	0	0	527	
7	0	0	0	0	913	
8	0	0	0	0	0	
9	0	0	0	0	845	
10	0	0	0	0	1020	
11	0	0	0	0	73	
12	0	0	0	0	655	
13	0	0	0	0	779	
14	0	0	0	0	137	
15	0	0	0	0	497	
0	0	0	0	0	924	
1	0	0	0	0	0	
2	0	0	0	0	823	
3	0	0	0	0	543	
4	0	0	0	0	439	
5	0	0	0	0	688	
6	0	0	0	0	983	
7	0	0	0	0	0	
8	0	0	0	0	1022	
9	0	0	0	0	214	
10	0	0	0	0	636	
11	0	0	0	0	672	
12	0	0	0	0	399	
13	0	0	0	0	212	
14	0	0	0	0	661	
15	0	0	0	0	755	
0	0	0	0	0	121	
1	0	0	0	0	1007	
2	0	0	0	0	585	
3	0	0	0	0	0	
4	0	0	0	0	968	
5	0	0	0	0	366	
6	0	0	0	0	290	
7	0	0	0	0	897	
8	0	0	0	0	118	
9	0	0	0	0	464	
10	0	0	0	0	441	
11	0	0	0	0	421	
12	0	0	0	0	282	
13	0	0	0	0	417	
14	0	0	0	0	763	
15	0	0	0	0	51	
0	0	0	0	0	811	
1	0	0	0	0	484	
2	0	0	0	0	335	
3	0	0	0	0	982	
4	0	0	0	0	0	
5	0	0	0	0	864	
6	0	0	0	0	1022	
7	0	0	0	0	55	
8	0	0	0	0	649	
9	0	0	0	0	0	
10	0	0	0	0	1022	
11	0	0	0	0	451	
12	0	0	0	0	297	
13	0	0	0	0	463	
14	0	0	0	0	564	
15	0	0	0	0	524	
0	0	0	0	0	504	
1	0	0	0	0	505	
2	0	0	0	0	518	
3	0	0	0	0	526	
4	0	0	0	0	499	
5	0	0	0	0	556	
6	0	0	0	0	466	
7	0	0	0	0	489	
8	0	0	0	0	572	
9	0	0	0	0	442	
10	0	0	0	0	667	
11	0	0	0	0	222	
12	0	0	0	0	588	
13	0	0	0	0	852	
14	0	0	0	0	321	
15	0	0	0	0	463	
0	0	0	0	0	832	
1	0	0	0	0	0	
2	0	0	0	0	905	
3	0	0	0	0	646	
4	0	0	0	0	207	
5	0	0	0	0	968	
6	0	0	0	0	149	
7	0	0	0	0	227	
8	0	0	0	0	1022	
9	0	0	0	0	0	
10	0	0	0	0	1022	
11	0	0	0	0	800	
12	0	0	0	0	135	
13	0	0	0	0	272	
14	0	0	0	0	390	
15	0	0	0	0	648	
0	0	0	0	0	726	
1	0	0	0	0	410	
2	0	0	0	0	463	
3	0	0	0	0	888	
4	0	0	0	0	0	
5	0	0	0	0	1022	
6	0	0	0	0	143	
7	0	0	0	0	824	
8	0	0	0	0	324	
9	0	0	0	0	615	
10	0	0	0	0	1022	
11	0	0	0	0	335	
12	0	0	0	0	505	
13	0	0	0	0	34	
14	0	0	0	0	988	
15	0	0	0	0	73	
0	0	0	0	0	268	
1	0	0	0	0	1022	
2	0	0	0	0	0	
3	0	0	0	0	516	
4	0	0	0	0	1022	
5	0	0	0	0	144	
6	0	0	0	0	467	
7	0	0	0	0	856	
8	0	0	0	0	571	
9	0	0	0	0	24	
10	0	0	0	0	999	
11	0	0	0	0	579	
12	0	0	0	0	944	
13	0	0	0	0	0	
14	0	0	0	0	940	
15	0	0	0	0	520	
0	0	0	0	0	556	
1	0	0	0	0	450	
2	0	0	0	0	238	
3	0	0	0	0	800	
4	0	0	0	0	588	
5	0	0	0	0	194	
6	0	0	0	0	635	
7	0	0	0	0	399	
8	0	0	0	0	744	
9	0	0	0	0	536	
10	0	0	0	0	485	
11	0	0	0	0	674	
12	0	0	0	0	663	
13	0	0	0	0	161	
14	0	0	0	0	645	
15	0	0	0	0	966	
0	0	0	0	0	0	
1	0	0	0	0	899	
2	0	0	0	0	365	
3	0	0	0	0	7	
4	0	0	0	0	952	
5	0	0	0	0	310	
6	0	0	0	0	749	
7	0	0	0	0	796	
8	0	0	0	0	224	
9	0	0	0	0	281	
10	0	0	0	0	645	
11	0	0	0	0	424	
12	0	0	0	0	589	
13	0	0	0	0	572	
14	0	0	0	0	459	
15	0	0	0	0	394	
0	0	0	0	0	626	
1	0	0	0	0	504	
2	0	0	0	0	474	
3	0	0	0	0	447	
4	0	0	0	0	543	
5	0	0	0	0	519	
6	0	0	0	0	598	
7	0	0	0	0	549	
8	0	0	0	0	460	
9	0	0	0	0	612	
10	0	0	0	0	440	
11	0	0	0	0	619	
12	0	0	0	0	626	
13	0	0	0	0	238	
14	0	0	0	0	460	
15	0	0	0	0	337	
0	0	0	0	0	694	
1	0	0	0	0	372	
2	0	0	0	0	394	
3	0	0	0	0	966	
4	0	0	0	0	327	
5	0	0	0	0	536	
6	0	0	0	0	435	
7	0	0	0	0	156	
8	0	0	0	0	842	
9	0	0	0	0	434	
10	0	0	0	0	567	
11	0	0	0	0	344	
12	0	0	0	0	691	
13	0	0	0	0	255	
14	0	0	0	0	700	
15	0	0	0	0	933	
0	0	0	0	0	0	
1	0	0	0	0	879	
2	0	0	0	0	583	
3	0	0	0	0	372	
4	0	0	0	0	873	
5	0	0	0	0	0	
6	0	0	0	0	493	
7	0	0	0	0	340	
8	0	0	0	0	1011	
9	0	0	0	0	454	
10	0	0	0	0	556	
11	0	0	0	0	57	
12	0	0	0	0	1022	
13	0	0	0	0	99	
14	0	0	0	0	782	
15	0	0	0	0	84	
0	0	0	0	0	856	
1	0	0	0	0	0	
2	0	0	0	0	584	
3	0	0	0	0	851	
4	0	0	0	0	185	
5	0	0	0	0	493	
6	0	0	0	0	642	
7	0	0	0	0	129	
8	0	0	0	0	813	
9	0	0	0	0	728	
10	0	0	0	0	493	
11	0	0	0	0	228	
12	0	0	0	0	1022	
13	0	0	0	0	0	
14	0	0	0	0	1022	
15	0	0	0	0	0	
0	0	0	0	0	528	
1	0	0	0	0	731	
2	0	0	0	0	644	
3	0	0	0	0	115	
4	0	0	0	0	385	
5	0	0	0	0	1022	
6	0	0	0	0	93	
7	0	0	0	0	652	
8	0	0	0	0	659	
9	0	0	0	0	617	
10	0	0	0	0	653	
11	0	0	0	0	293	
12	0	0	0	0	851	
13	0	0	0	0	0	
14	0	0	0	0	452	
15	0	0	0	0	507	
0	0	0	0	0	1022	
1	0	0	0	0	3	
2	0	0	0	0	192	
3	0	0	0	0	1022	
4	0	0	0	0	319	
5	0	0	0	0	439	
6	0	0	0	0	580	
7	0	0	0	0	528	
8	0	0	0	0	606	
9	0	0	0	0	482	
10	0	0	0	0	405	
11	0	0	0	0	607	
12	0	0	0	0	405	
13	0	0	0	0	648	
14	0	0	0	0	526	
15	0	0	0	0	448	
0	0	0	0	0	471	
1	0	0	0	0	510	
2	0	0	0	0	440	
3	0	0	0	0	600	
4	0	0	0	0	541	
5	0	0	0	0	515	
6	0	0	0	0	317	
7	0	0	0	0	527	
8	0	0	0	0	907	
9	0	0	0	0	286	
10	0	0	0	0	535	
11	0	0	0	0	547	
12	0	0	0	0	336	
13	0	0	0	0	559	
14	0	0	0	0	509	
15	0	0	0	0	531	
0	0	0	0	0	559	
1	0	0	0	0	662	
2	0	0	0	0	620	
3	0	0	0	0	542	
4	0	0	0	0	196	
5	0	0	0	0	691	
6	0	0	0	0	566	
7	0	0	0	0	184	
8	0	0	0	0	999	
9	0	0	0	0	0	
10	0	0	0	0	1022	
11	0	0	0	0	158	
12	0	0	0	0	112	
13	0	0	0	0	1022	
14	0	0	0	0	495	
15	0	0	0	0	25	
0	0	0	0	0	586	
1	0	0	0	0	822	
2	0	0	0	0	484	
3	0	0	0	0	411	
4	0	0	0	0	724	
5	0	0	0	0	62	
6	0	0	0	0	818	
7	0	0	0	0	635	
8	0	0	0	0	344	
9	0	0	0	0	1022	
10	0	0	0	0	0	
11	0	0	0	0	448	
12	0	0	0	0	786	
13	0	0	0	0	524	
14	0	0	0	0	371	
15	0	0	0	0	1022	
0	0	0	0	0	187	
1	0	0	0	0	375	
2	0	0	0	0	419	
3	0	0	0	0	711	
4	0	0	0	0	706	
5	0	0	0	0	886	
6	0	0	0	0	0	
7	0	0	0	0	1022	
8	0	0	0	0	1022	
9	0	0	0	0	0	
10	0	0	0	0	1022	
11	0	0	0	0	245	
12	0	0	0	0	330	
13	0	0	0	0	681	
14	0	0	0	0	123	
15	0	0	0	0	1022	
0	0	0	0	0	0	
1	0	0	0	0	872	
2	0	0	0	0	818	
3	0	0	0	0	285	
4	0	0	0	0	283	
5	0	0	0	0	919	
6	0	0	0	0	564	
7	0	0	0	0	340	
8	0	0	0	0	813	
9	0	0	0	0	2	
10	0	0	0	0	942	
11	0	0	0	0	599	
12	0	0	0	0	404	
13	0	0	0	0	54	
14	0	0	0	0	616	
15	0	0	0	0	946	
0	0	0	0	0	534	
1	0	0	0	0	147	
2	0	0	0	0	300	
3	0	0	0	0	640	
4	0	0	0	0	508	
5	0	0	0	0	614	
6	0	0	0	0	529	
7	0	0	0	0	457	
8	0	0	0	0	495	
9	0	0	0	0	516	
10	0	0	0	0	526	
11	0	0	0	0	508	
12	0	0	0	0	497	
13	0	0	0	0	517	
14	0	0	0	0	515	
15	0	0	0	0	464	
0	0	0	0	0	481	
1	0	0	0	0	499	
2	0	0	0	0	570	
3	0	0	0	0	427	
4	0	0	0	0	724	
5	0	0	0	0	461	
6	0	0	0	0	431	
7	0	0	0	0	363	
8	0	0	0	0	667	
9	0	0	0	0	414	
10	0	0	0	0	552	
11	0	0	0	0	834	
12	0	0	0	0	270	
13	0	0	0	0	588	
14	0	0	0	0	313	
15	0	0	0	0	638	
0	0	0	0	0	629	
1	0	0	0	0	476	
2	0	0	0	0	322	
3	0	0	0	0	546	
4	0	0	0	0	846	
5	0	0	0	0	261	
6	0	0	0	0	261	
7	0	0	0	0	932	
8	0	0	0	0	301	
9	0	0	0	0	511	
10	0	0	0	0	575	
11	0	0	0	0	495	
12	0	0	0	0	555	
13	0	0	0	0	176	
14	0	0	0	0	671	
15	0	0	0	0	645	
0	0	0	0	0	285	
1	0	0	0	0	743	
2	0	0	0	0	407	
3	0	0	0	0	387	
4	0	0	0	0	545	
5	0	0	0	0	1022	
6	0	0	0	0	185	
7	0	0	0	0	581	
8	0	0	0	0	638	
9	0	0	0	0	71	
10	0	0	0	0	932	
11	0	0	0	0	1022	
12	0	0	0	0	0	
13	0	0	0	0	499	
14	0	0	0	0	709	
15	0	0	0	0	667	
0	0	0	0	0	42	
1	0	0	0	0	572	
2	0	0	0	0	433	
3	0	0	0	0	614	
4	0	0	0	0	179	
5	0	0	0	0	1022	
6	0	0	0	0	0	
7	0	0	0	0	212	
8	0	0	0	0	435	
9	0	0	0	0	502	
10	0	0	0	0	824	
11	0	0	0	0	0	
12	0	0	0	0	916	
13	0	0	0	0	873	
14	0	0	0	0	64	
15	0	0	0	0	573	
0	0	0	0	0	603	
1	0	0	0	0	231	
2	0	0	0	0	879	
3	0	0	0	0	721	
4	0	0	0	0	78	
5	0	0	0	0	1022	
6	0	0	0	0	299	
7	0	0	0	0	39	
8	0	0	0	0	912	
9	0	0	0	0	297	
10	0	0	0	0	226	
11	0	0	0	0	1022	
12	0	0	0	0	419	
13	0	0	0	0	188	
14	0	0	0	0	631	
15	0	0	0	0	574	
0	0	0	0	0	571	
1	0	0	0	0	674	
2	0	0	0	0	400	
3	0	0	0	0	454	
4	0	0	0	0	532	
5	0	0	0	0	518	
6	0	0	0	0	515	
7	0	0	0	0	497	
8	0	0	0	0	524	
9	0	0	0	0	476	
10	0	0	0	0	563	
11	0	0	0	0	458	
12	0	0	0	0	546	
13	0	0	0	0	478	
14	0	0	0	0	385	
15	0	0	0	0	679	
0	0	0	0	0	441	
1	0	0	0	0	474	
2	0	0	0	0	612	
3	0	0	0	0	367	
4	0	0	0	0	550	
5	0	0	0	0	616	
6	0	0	0	0	537	
7	0	0	0	0	315	
8	0	0	0	0	742	
9	0	0	0	0	539	
10	0	0	0	0	308	
11	0	0	0	0	727	
12	0	0	0	0	511	
13	0	0	0	0	313	
14	0	0	0	0	600	
15	0	0	0	0	722	
0	0	0	0	0	437	
1	0	0	0	0	527	
2	0	0	0	0	206	
3	0	0	0	0	840	
4	0	0	0	0	625	
5	0	0	0	0	29	
6	0	0	0	0	932	
7	0	0	0	0	0	
8	0	0	0	0	564	
9	0	0	0	0	721	
10	0	0	0	0	391	
11	0	0	0	0	582	
12	0	0	0	0	643	
13	0	0	0	0	210	
14	0	0	0	0	1022	
15	0	0	0	0	0	
0	0	0	0	0	603	
1	0	0	0	0	516	
2	0	0	0	0	764	
3	0	0	0	0	379	
4	0	0	0	0	636	
5	0	0	0	0	24	
6	0	0	0	0	1022	
7	0	0	0	0	334	
8	0	0	0	0	39	
9	0	0	0	0	563	
10	0	0	0	0	886	
11	0	0	0	0	153	
12	0	0	0	0	910	
13	0	0	0	0	756	
14	0	0	0	0	0	
15	0	0	0	0	686	
0	0	0	0	0	651	
1	0	0	0	0	923	
2	0	0	0	0	0	
3	0	0	0	0	868	
4	0	0	0	0	284	
5	0	0	0	0	436	
6	0	0	0	0	59	
7	0	0	0	0	1023	
8	0	0	0	0	447	
9	0	0	0	0	275	
10	0	0	0	0	406	
11	0	0	0	0	1013	
12	0	0	0	0	225	
13	0	0	0	0	306	
14	0	0	0	0	903	
15	0	0	0	0	232	
0	0	0	0	0	841	
1	0	0	0	0	923	
2	0	0	0	0	0	
3	0	0	0	0	827	
4	0	0	0	0	295	
5	0	0	0	0	475	
6	0	0	0	0	750	
7	0	0	0	0	374	
8	0	0	0	0	669	
9	0	0	0	0	55	
10	0	0	0	0	798	
11	0	0	0	0	794	
12	0	0	0	0	559	
13	0	0	0	0	219	
14	0	0	0	0	725	
15	0	0	0	0	444	
0	0	0	0	0	310	
1	0	0	0	0	648	
2	0	0	0	0	535	
3	0	0	0	0	476	
4	0	0	0	0	532	
5	0	0	0	0	523	
6	0	0	0	0	469	
7	0	0	0	0	542	
8	0	0	0	0	471	
9	0	0	0	0	558	
10	0	0	0	0	511	
11	0	0	0	0	497	
12	0	0	0	0	515	
13	0	0	0	0	551	
14	0	0	0	0	521	
15	0	0	0	0	499	
0	0	0	0	0	542	
1	0	0	0	0	464	
2	0	0	0	0	495	
3	0	0	0	0	576	
4	0	0	0	0	445	
5	0	0	0	0	509	
6	0	0	0	0	579	
7	0	0	0	0	480	
8	0	0	0	0	449	
9	0	0	0	0	634	
10	0	0	0	0	411	
11	0	0	0	0	517	
12	0	0	0	0	600	
13	0	0	0	0	502	
14	0	0	0	0	458	
15	0	0	0	0	546	
0	0	0	0	0	516	
1	0	0	0	0	465	
2	0	0	0	0	549	
3	0	0	0	0	523	
4	0	0	0	0	463	
5	0	0	0	0	492	
6	0	0	0	0	561	
7	0	0	0	0	484	
8	0	0	0	0	529	
9	0	0	0	0	511	
10	0	0	0	0	553	
11	0	0	0	0	519	
12	0	0	0	0	477	
13	0	0	0	0	463	
14	0	0	0	0	518	
15	0	0	0	0	474	
0	0	0	0	0	476	
1	0	0	0	0	533	
2	0	0	0	0	531	
3	0	0	0	0	470	
4	0	0	0	0	536	
5	0	0	0	0	505	
6	0	0	0	0	468	
7	0	0	0	0	557	
8	0	0	0	0	538	
9	0	0	0	0	488	
10	0	0	0	0	611	
11	0	0	0	0	441	
12	0	0	0	0	508	
13	0	0	0	0	541	
14	0	0	0	0	554	
15	0	0	0	0	288	
0	0	0	0	0	568	
1	0	0	0	0	600	
2	0	0	0	0	486	
3	0	0	0	0	499	
4	0	0	0	0	489	
5	0	0	0	0	488	
6	0	0	0	0	463	
7	0	0	0	0	583	
8	0	0	0	0	528	
9	0	0	0	0	450	
10	0	0	0	0	459	
11	0	0	0	0	493	
12	0	0	0	0	524	
13	0	0	0	0	480	
14	0	0	0	0	526	
15	0	0	0	0	518	
0	0	0	0	0	472	
1	0	0	0	0	583	
2	0	0	0	0	452	
3	0	0	0	0	494	
4	0	0	0	0	523	
5	0	0	0	0	527	
6	0	0	0	0	502	
7	0	0	0	0	503	
8	0	0	0	0	509	
9	0	0	0	0	510	
10	0	0	0	0	499	
11	0	0	0	0	509	
12	0	0	0	0	502	
13	0	0	0	0	511	
14	0	0	0	0	516	
15	0	0	0	0	512	
0	0	0	0	0	512	
1	0	0	0	0	512	
2	0	0	0	0	504	
3	0	0	0	0	517	
4	0	0	0	0	510	
5	0	0	0	0	519	
6	0	0	0	0	510	
7	0	0	0	0	520	
8	0	0	0	0	513	
9	0	0	0	0	513	
10	0	0	0	0	507	
11	0	0	0	0	508	
12	0	0	0	0	497	
13	0	0	0	0	482	
14	0	0	0	0	505	
15	0	0	0	0	518	
0	0	0	0	0	527	
1	0	0	0	0	519	
2	0	0	0	0	512	
3	0	0	0	0	505	
4	0	0	0	0	517	
5	0	0	0	0	524	
6	0	0	0	0	516	
7	0	0	0	0	491	
8	0	0	0	0	527	
9	0	0	0	0	521	
10	0	0	0	0	531	
11	0	0	0	0	453	
12	0	0	0	0	464	
13	0	0	0	0	590	
14	0	0	0	0	470	
15	0	0	0	0	508	
0	0	0	0	0	531	
1	0	0	0	0	511	
2	0	0	0	0	524	
3	0	0	0	0	521	
4	0	0	0	0	517	
5	0	0	0	0	510	
6	0	0	0	0	509	
7	0	0	0	0	509	
8	0	0	0	0	506	
9	0	0	0	0	510	
10	0	0	0	0	507	
11	0	0	0	0	523	
12	0	0	0	0	437	
13	0	0	0	0	551	
14	0	0	0	0	520	
15	0	0	0	0	520	
0	0	0	0	0	479	
1	0	0	0	0	507	
2	0	0	0	0	513	
3	0	0	0	0	521	
4	0	0	0	0	507	
5	0	0	0	0	530	
6	0	0	0	0	493	
7	0	0	0	0	508	
8	0	0	0	0	483	
9	0	0	0	0	559	
10	0	0	0	0	515	
11	0	0	0	0	496	
12	0	0	0	0	526	
13	0	0	0	0	480	
14	0	0	0	0	508	
15	0	0	0	0	500	
0	0	0	0	0	524	
1	0	0	0	0	512	
2	0	0	0	0	507	
3	0	0	0	0	505	
4	0	0	0	0	508	
5	0	0	0	0	502	
6	0	0	0	0	504	
7	0	0	0	0	509	
8	0	0	0	0	511	
9	0	0	0	0	514	
10	0	0	0	0	506	
11	0	0	0	0	508	
12	0	0	0	0	515	
13	0	0	0	0	498	
14	0	0	0	0	470	
15	0	0	0	0	583	
0	0	0	0	0	468	
1	0	0	0	0	504	
2	0	0	0	0	537	
3	0	0	0	0	497	
4	0	0	0	0	499	
5	0	0	0	0	505	
6	0	0	0	0	515	
7	0	0	0	0	506	
8	0	0	0	0	510	
9	0	0	0	0	510	
10	0	0	0	0	510	
11	0	0	0	0	507	
12	0	0	0	0	511	
13	0	0	0	0	507	
14	0	0	0	0	516	
15	0	0	0	0	507	
0	0	0	0	0	511	
1	0	0	0	0	507	
2	0	0	0	0	508	
3	0	0	0	0	504	
4	0	0	0	0	509	
5	0	0	0	0	510	
6	0	0	0	0	504	
7	0	0	0	0	509	
8	0	0	0	0	509	
9	0	0	0	0	509	
10	0	0	0	0	511	
11	0	0	0	0	502	
12	0	0	0	0	511	
13	0	0	0	0	505	
14	0	0	0	0	508	
15	0	0	0	0	511	
0	0	0	0	0	524	
1	0	0	0	0	502	
2	0	0	0	0	503	
3	0	0	0	0	505	
4	0	0	0	0	502	
5	0	0	0	0	507	
6	0	0	0	0	510	
7	0	0	0	0	523	
8	0	0	0	0	510	
9	0	0	0	0	518	
10	0	0	0	0	505	
11	0	0	0	0	504	
12	0	0	0	0	493	
13	0	0	0	0	528	
14	0	0	0	0	494	
15	0	0	0	0	510	
0	0	0	0	0	496	
1	0	0	0	0	485	
2	0	0	0	0	560	
3	0	0	0	0	499	
4	0	0	0	0	533	
5	0	0	0	0	534	
6	0	0	0	0	519	
7	0	0	0	0	502	
8	0	0	0	0	495	
9	0	0	0	0	496	
10	0	0	0	0	496	
11	0	0	0	0	497	
12	0	0	0	0	500	
13	0	0	0	0	517	
14	0	0	0	0	514	
15	0	0	0	0	528	
0	0	0	0	0	501	
1	0	0	0	0	450	
2	0	0	0	0	474	
3	0	0	0	0	567	
4	0	0	0	0	550	
5	0	0	0	0	519	
6	0	0	0	0	508	
7	0	0	0	0	505	
8	0	0	0	0	511	
9	0	0	0	0	508	
10	0	0	0	0	506	
11	0	0	0	0	499	
12	0	0	0	0	505	
13	0	0	0	0	509	
14	0	0	0	0	496	
15	0	0	0	0	507	
0	0	0	0	0	515	
1	0	0	0	0	510	
2	0	0	0	0	511	
3	0	0	0	0	497	
4	0	0	0	0	515	
5	0	0	0	0	516	
6	0	0	0	0	513	
7	0	0	0	0	499	
8	0	0	0	0	501	
9	0	0	0	0	509	
10	0	0	0	0	509	
11	0	0	0	0	522	
12	0	0	0	0	506	
13	0	0	0	0	519	
14	0	0	0	0	521	
15	0	0	0	0	490	
0	0	0	0	0	514	
1	0	0	0	0	519	
2	0	0	0	0	511	
3	0	0	0	0	514	
4	0	0	0	0	491	
5	0	0	0	0	488	
6	0	0	0	0	510	
7	0	0	0	0	507	
8	0	0	0	0	471	
9	0	0	0	0	541	
10	0	0	0	0	539	
11	0	0	0	0	505	
12	0	0	0	0	509	
13	0	0	0	0	504	
14	0	0	0	0	511	
15	0	0	0	0	517	
0	0	0	0	0	520	
1	0	0	0	0	509	
2	0	0	0	0	502	
3	0	0	0	0	511	
4	0	0	0	0	507	
5	0	0	0	0	513	
6	0	0	0	0	508	
7	0	0	0	0	503	
8	0	0	0	0	508	
9	0	0	0	0	509	
10	0	0	0	0	514	
11	0	0	0	0	511	
12	0	0	0	0	512	
13	0	0	0	0	499	
14	0	0	0	0	516	
15	0	0	0	0	527	
0	0	0	0	0	505	
1	0	0	0	0	501	
2	0	0	0	0	506	
3	0	0	0	0	504	
4	0	0	0	0	512	
5	0	0	0	0	499	
6	0	0	0	0	505	
7	0	0	0	0	513	
8	0	0	0	0	513	
9	0	0	0	0	515	
10	0	0	0	0	500	
11	0	0	0	0	517	
12	0	0	0	0	493	
13	0	0	0	0	515	
14	0	0	0	0	509	
15	0	0	0	0	511	
0	0	0	0	0	504	
1	0	0	0	0	510	
2	0	0	0	0	511	
3	0	0	0	0	504	
4	0	0	0	0	514	
5	0	0	0	0	511	
6	0	0	0	0	509	
7	0	0	0	0	499	
8	0	0	0	0	505	
9	0	0	0	0	522	
10	0	0	0	0	491	
11	0	0	0	0	459	
12	0	0	0	0	587	
13	0	0	0	0	483	
14	0	0	0	0	497	
15	0	0	0	0	532	
0	0	0	0	0	500	
1	0	0	0	0	503	
2	0	0	0	0	512	
3	0	0	0	0	508	
4	0	0	0	0	494	
5	0	0	0	0	507	
6	0	0	0	0	509	
7	0	0	0	0	516	
8	0	0	0	0	504	
9	0	0	0	0	504	
10	0	0	0	0	511	
11	0	0	0	0	504	
12	0	0	0	0	509	
13	0	0	0	0	508	
14	0	0	0	0	507	
15	0	0	0	0	515	
0	0	0	0	0	508	
1	0	0	0	0	524	
2	0	0	0	0	511	
3	0	0	0	0	507	
4	0	0	0	0	514	
5	0	0	0	0	505	
6	0	0	0	0	505	
7	0	0	0	0	514	
8	0	0	0	0	506	
9	0	0	0	0	511	
10	0	0	0	0	506	
11	0	0	0	0	503	
12	0	0	0	0	504	
13	0	0	0	0	507	
14	0	0	0	0	514	
15	0	0	0	0	506	
0	0	0	0	0	514	
1	0	0	0	0	509	
2	0	0	0	0	508	
3	0	0	0	0	511	
4	0	0	0	0	504	
5	0	0	0	0	504	
6	0	0	0	0	504	
7	0	0	0	0	511	
8	0	0	0	0	511	
9	0	0	0	0	512	
10	0	0	0	0	508	
11	0	0	0	0	509	
12	0	0	0	0	510	
13	0	0	0	0	505	
14	0	0	0	0	506	
15	0	0	0	0	511	
0	0	0	0	0	501	
1	0	0	0	0	479	
2	0	0	0	0	604	
3	0	0	0	0	467	
4	0	0	0	0	494	
5	0	0	0	0	536	
6	0	0	0	0	512	
7	0	0	0	0	498	
8	0	0	0	0	507	
9	0	0	0	0	501	
10	0	0	0	0	504	
11	0	0	0	0	506	
12	0	0	0	0	509	
13	0	0	0	0	502	
14	0	0	0	0	509	
15	0	0	0	0	520	
0	0	0	0	0	502	
1	0	0	0	0	513	
2	0	0	0	0	506	
3	0	0	0	0	510	
4	0	0	0	0	510	
5	0	0	0	0	518	
6	0	0	0	0	502	
7	0	0	0	0	510	
8	0	0	0	0	508	
9	0	0	0	0	511	
10	0	0	0	0	509	
11	0	0	0	0	504	
12	0	0	0	0	507	
13	0	0	0	0	506	
14	0	0	0	0	509	
15	0	0	0	0	512	
0	0	0	0	0	512	
1	0	0	0	0	506	
2	0	0	0	0	506	
3	0	0	0	0	512	
4	0	0	0	0	511	
5	0	0	0	0	510	
6	0	0	0	0	510	
7	0	0	0	0	512	
8	0	0	0	0	504	
9	0	0	0	0	516	
10	0	0	0	0	508	
11	0	0	0	0	499	
12	0	0	0	0	510	
13	0	0	0	0	511	
14	0	0	0	0	512	
15	0	0	0	0	510	
0	0	0	0	0	509	
1	0	0	0	0	511	
2	0	0	0	0	502	
3	0	0	0	0	505	
4	0	0	0	0	517	
5	0	0	0	0	502	
6	0	0	0	0	466	
7	0	0	0	0	595	
8	0	0	0	0	465	
9	0	0	0	0	483	
10	0	0	0	0	533	
11	0	0	0	0	510	
12	0	0	0	0	502	
13	0	0	0	0	509	
14	0	0	0	0	505	
15	0	0	0	0	507	
0	0	0	0	0	510	
1	0	0	0	0	502	
2	0	0	0	0	515	
