# OpenSignals Text File Format. Version 1
# {"84:BA:20:5E:FB:98": {"position": 0, "device": "bitalino_rev", "device name": "84:BA:20:5E:FB:98", "device connection": "BTH84:BA:20:5E:FB:98", "sampling rate": 100, "resolution": [4, 1, 1, 1, 1, 10], "firmware version": 1282, "comments": "", "keywords": "", "mode": 0, "sync interval": 2, "date": "2024-3-1", "time": "18:8:45.924", "channels": [1], "sensor": ["EMGBITREV"], "label": ["A1"], "column": ["nSeq", "I1", "I2", "O1", "O2", "A1"], "special": [{}], "digital IO": [0, 0, 1, 1]}}
# EndOfHeader
0	0	0	0	0	513	
1	0	0	0	0	510	
2	0	0	0	0	509	
3	0	0	0	0	508	
4	0	0	0	0	507	
5	0	0	0	0	508	
6	0	0	0	0	510	
7	0	0	0	0	508	
8	0	0	0	0	510	
9	0	0	0	0	509	
10	0	0	0	0	512	
11	0	0	0	0	508	
12	0	0	0	0	510	
13	0	0	0	0	511	
14	0	0	0	0	513	
15	0	0	0	0	508	
0	0	0	0	0	512	
1	0	0	0	0	508	
2	0	0	0	0	514	
3	0	0	0	0	508	
4	0	0	0	0	512	
5	0	0	0	0	508	
6	0	0	0	0	513	
7	0	0	0	0	508	
8	0	0	0	0	512	
9	0	0	0	0	508	
10	0	0	0	0	511	
11	0	0	0	0	508	
12	0	0	0	0	511	
13	0	0	0	0	504	
14	0	0	0	0	510	
15	0	0	0	0	510	
0	0	0	0	0	514	
1	0	0	0	0	508	
2	0	0	0	0	511	
3	0	0	0	0	510	
4	0	0	0	0	513	
5	0	0	0	0	506	
6	0	0	0	0	512	
7	0	0	0	0	511	
8	0	0	0	0	512	
9	0	0	0	0	509	
10	0	0	0	0	513	
11	0	0	0	0	506	
12	0	0	0	0	515	
13	0	0	0	0	510	
14	0	0	0	0	513	
15	0	0	0	0	507	
0	0	0	0	0	490	
1	0	0	0	0	504	
2	0	0	0	0	603	
3	0	0	0	0	472	
4	0	0	0	0	476	
5	0	0	0	0	527	
6	0	0	0	0	512	
7	0	0	0	0	508	
8	0	0	0	0	512	
9	0	0	0	0	507	
10	0	0	0	0	512	
11	0	0	0	0	508	
12	0	0	0	0	513	
13	0	0	0	0	511	
14	0	0	0	0	511	
15	0	0	0	0	508	
0	0	0	0	0	512	
1	0	0	0	0	510	
2	0	0	0	0	512	
3	0	0	0	0	510	
4	0	0	0	0	512	
5	0	0	0	0	510	
6	0	0	0	0	515	
7	0	0	0	0	504	
8	0	0	0	0	510	
9	0	0	0	0	510	
10	0	0	0	0	514	
11	0	0	0	0	509	
12	0	0	0	0	514	
13	0	0	0	0	511	
14	0	0	0	0	517	
15	0	0	0	0	510	
0	0	0	0	0	511	
1	0	0	0	0	504	
2	0	0	0	0	510	
3	0	0	0	0	507	
4	0	0	0	0	512	
5	0	0	0	0	508	
6	0	0	0	0	511	
7	0	0	0	0	510	
8	0	0	0	0	512	
9	0	0	0	0	507	
10	0	0	0	0	513	
11	0	0	0	0	510	
12	0	0	0	0	513	
13	0	0	0	0	509	
14	0	0	0	0	513	
15	0	0	0	0	508	
0	0	0	0	0	511	
1	0	0	0	0	509	
2	0	0	0	0	512	
3	0	0	0	0	510	
4	0	0	0	0	512	
5	0	0	0	0	508	
6	0	0	0	0	514	
7	0	0	0	0	512	
8	0	0	0	0	516	
9	0	0	0	0	508	
10	0	0	0	0	513	
11	0	0	0	0	511	
12	0	0	0	0	511	
13	0	0	0	0	511	
14	0	0	0	0	516	
15	0	0	0	0	508	
0	0	0	0	0	511	
1	0	0	0	0	509	
2	0	0	0	0	514	
3	0	0	0	0	507	
4	0	0	0	0	514	
5	0	0	0	0	510	
6	0	0	0	0	513	
7	0	0	0	0	509	
8	0	0	0	0	513	
9	0	0	0	0	508	
10	0	0	0	0	514	
11	0	0	0	0	508	
12	0	0	0	0	512	
13	0	0	0	0	510	
14	0	0	0	0	485	
15	0	0	0	0	526	
0	0	0	0	0	593	
1	0	0	0	0	463	
2	0	0	0	0	495	
3	0	0	0	0	526	
4	0	0	0	0	511	
5	0	0	0	0	509	
6	0	0	0	0	512	
7	0	0	0	0	506	
8	0	0	0	0	513	
9	0	0	0	0	509	
10	0	0	0	0	515	
11	0	0	0	0	507	
12	0	0	0	0	512	
13	0	0	0	0	508	
14	0	0	0	0	513	
15	0	0	0	0	507	
0	0	0	0	0	511	
1	0	0	0	0	508	
2	0	0	0	0	514	
3	0	0	0	0	507	
4	0	0	0	0	513	
5	0	0	0	0	510	
6	0	0	0	0	515	
7	0	0	0	0	509	
8	0	0	0	0	516	
9	0	0	0	0	511	
10	0	0	0	0	515	
11	0	0	0	0	513	
12	0	0	0	0	518	
13	0	0	0	0	507	
14	0	0	0	0	512	
15	0	0	0	0	506	
0	0	0	0	0	511	
1	0	0	0	0	507	
2	0	0	0	0	512	
3	0	0	0	0	508	
4	0	0	0	0	514	
5	0	0	0	0	510	
6	0	0	0	0	514	
7	0	0	0	0	508	
8	0	0	0	0	511	
9	0	0	0	0	511	
10	0	0	0	0	513	
11	0	0	0	0	510	
12	0	0	0	0	512	
13	0	0	0	0	508	
14	0	0	0	0	513	
15	0	0	0	0	509	
0	0	0	0	0	513	
1	0	0	0	0	508	
2	0	0	0	0	513	
3	0	0	0	0	506	
4	0	0	0	0	510	
5	0	0	0	0	508	
6	0	0	0	0	517	
7	0	0	0	0	506	
8	0	0	0	0	514	
9	0	0	0	0	509	
10	0	0	0	0	510	
11	0	0	0	0	505	
12	0	0	0	0	514	
13	0	0	0	0	509	
14	0	0	0	0	511	
15	0	0	0	0	510	
0	0	0	0	0	513	
1	0	0	0	0	512	
2	0	0	0	0	510	
3	0	0	0	0	511	
4	0	0	0	0	513	
5	0	0	0	0	505	
6	0	0	0	0	515	
7	0	0	0	0	513	
8	0	0	0	0	506	
9	0	0	0	0	510	
10	0	0	0	0	511	
11	0	0	0	0	510	
12	0	0	0	0	504	
13	0	0	0	0	453	
14	0	0	0	0	593	
15	0	0	0	0	526	
0	0	0	0	0	445	
1	0	0	0	0	527	
2	0	0	0	0	525	
3	0	0	0	0	508	
4	0	0	0	0	507	
5	0	0	0	0	513	
6	0	0	0	0	515	
7	0	0	0	0	508	
8	0	0	0	0	508	
9	0	0	0	0	508	
10	0	0	0	0	512	
11	0	0	0	0	508	
12	0	0	0	0	514	
13	0	0	0	0	502	
14	0	0	0	0	514	
15	0	0	0	0	511	
0	0	0	0	0	514	
1	0	0	0	0	504	
2	0	0	0	0	508	
3	0	0	0	0	512	
4	0	0	0	0	514	
5	0	0	0	0	504	
6	0	0	0	0	515	
7	0	0	0	0	510	
8	0	0	0	0	509	
9	0	0	0	0	515	
10	0	0	0	0	509	
11	0	0	0	0	509	
12	0	0	0	0	511	
13	0	0	0	0	510	
14	0	0	0	0	512	
15	0	0	0	0	508	
0	0	0	0	0	516	
1	0	0	0	0	511	
2	0	0	0	0	515	
3	0	0	0	0	507	
4	0	0	0	0	513	
5	0	0	0	0	501	
6	0	0	0	0	512	
7	0	0	0	0	507	
8	0	0	0	0	503	
9	0	0	0	0	508	
10	0	0	0	0	515	
11	0	0	0	0	507	
12	0	0	0	0	515	
13	0	0	0	0	513	
14	0	0	0	0	510	
15	0	0	0	0	513	
0	0	0	0	0	508	
1	0	0	0	0	511	
2	0	0	0	0	510	
3	0	0	0	0	506	
4	0	0	0	0	507	
5	0	0	0	0	509	
6	0	0	0	0	510	
7	0	0	0	0	515	
8	0	0	0	0	509	
9	0	0	0	0	511	
10	0	0	0	0	511	
11	0	0	0	0	507	
12	0	0	0	0	512	
13	0	0	0	0	510	
14	0	0	0	0	513	
15	0	0	0	0	508	
0	0	0	0	0	512	
1	0	0	0	0	509	
2	0	0	0	0	512	
3	0	0	0	0	509	
4	0	0	0	0	511	
5	0	0	0	0	508	
6	0	0	0	0	511	
7	0	0	0	0	510	
8	0	0	0	0	509	
9	0	0	0	0	442	
10	0	0	0	0	601	
11	0	0	0	0	561	
12	0	0	0	0	417	
13	0	0	0	0	525	
14	0	0	0	0	522	
15	0	0	0	0	505	
0	0	0	0	0	511	
1	0	0	0	0	510	
2	0	0	0	0	513	
3	0	0	0	0	510	
4	0	0	0	0	514	
5	0	0	0	0	508	
6	0	0	0	0	509	
7	0	0	0	0	505	
8	0	0	0	0	514	
9	0	0	0	0	508	
10	0	0	0	0	515	
11	0	0	0	0	509	
12	0	0	0	0	514	
13	0	0	0	0	506	
14	0	0	0	0	512	
15	0	0	0	0	502	
0	0	0	0	0	513	
1	0	0	0	0	508	
2	0	0	0	0	515	
3	0	0	0	0	511	
4	0	0	0	0	521	
5	0	0	0	0	515	
6	0	0	0	0	522	
7	0	0	0	0	516	
8	0	0	0	0	519	
9	0	0	0	0	504	
10	0	0	0	0	513	
11	0	0	0	0	498	
12	0	0	0	0	512	
13	0	0	0	0	506	
14	0	0	0	0	524	
15	0	0	0	0	517	
0	0	0	0	0	519	
1	0	0	0	0	501	
2	0	0	0	0	467	
3	0	0	0	0	502	
4	0	0	0	0	516	
5	0	0	0	0	516	
6	0	0	0	0	519	
7	0	0	0	0	511	
8	0	0	0	0	514	
9	0	0	0	0	505	
10	0	0	0	0	516	
11	0	0	0	0	508	
12	0	0	0	0	517	
13	0	0	0	0	508	
14	0	0	0	0	517	
15	0	0	0	0	507	
0	0	0	0	0	519	
1	0	0	0	0	508	
2	0	0	0	0	518	
3	0	0	0	0	511	
4	0	0	0	0	517	
5	0	0	0	0	507	
6	0	0	0	0	514	
7	0	0	0	0	508	
8	0	0	0	0	515	
9	0	0	0	0	508	
10	0	0	0	0	516	
11	0	0	0	0	512	
12	0	0	0	0	513	
13	0	0	0	0	508	
14	0	0	0	0	515	
15	0	0	0	0	510	
0	0	0	0	0	516	
1	0	0	0	0	510	
2	0	0	0	0	516	
3	0	0	0	0	510	
4	0	0	0	0	500	
5	0	0	0	0	469	
6	0	0	0	0	594	
7	0	0	0	0	518	
8	0	0	0	0	453	
9	0	0	0	0	533	
10	0	0	0	0	521	
11	0	0	0	0	506	
12	0	0	0	0	512	
13	0	0	0	0	507	
14	0	0	0	0	516	
15	0	0	0	0	511	
0	0	0	0	0	516	
1	0	0	0	0	507	
2	0	0	0	0	515	
3	0	0	0	0	506	
4	0	0	0	0	514	
5	0	0	0	0	510	
6	0	0	0	0	517	
7	0	0	0	0	509	
8	0	0	0	0	516	
9	0	0	0	0	508	
10	0	0	0	0	513	
11	0	0	0	0	506	
12	0	0	0	0	512	
13	0	0	0	0	509	
14	0	0	0	0	518	
15	0	0	0	0	508	
0	0	0	0	0	519	
1	0	0	0	0	512	
2	0	0	0	0	520	
3	0	0	0	0	509	
4	0	0	0	0	512	
5	0	0	0	0	506	
6	0	0	0	0	513	
7	0	0	0	0	506	
8	0	0	0	0	515	
9	0	0	0	0	510	
10	0	0	0	0	516	
11	0	0	0	0	509	
12	0	0	0	0	515	
13	0	0	0	0	508	
14	0	0	0	0	515	
15	0	0	0	0	510	
0	0	0	0	0	516	
1	0	0	0	0	510	
2	0	0	0	0	513	
3	0	0	0	0	508	
4	0	0	0	0	513	
5	0	0	0	0	509	
6	0	0	0	0	518	
7	0	0	0	0	508	
8	0	0	0	0	518	
9	0	0	0	0	507	
10	0	0	0	0	515	
11	0	0	0	0	509	
12	0	0	0	0	517	
13	0	0	0	0	508	
14	0	0	0	0	516	
15	0	0	0	0	507	
0	0	0	0	0	514	
1	0	0	0	0	505	
2	0	0	0	0	518	
3	0	0	0	0	510	
4	0	0	0	0	516	
5	0	0	0	0	508	
6	0	0	0	0	516	
7	0	0	0	0	507	
8	0	0	0	0	514	
9	0	0	0	0	510	
10	0	0	0	0	516	
11	0	0	0	0	511	
12	0	0	0	0	480	
13	0	0	0	0	538	
14	0	0	0	0	585	
15	0	0	0	0	455	
0	0	0	0	0	507	
1	0	0	0	0	521	
2	0	0	0	0	515	
3	0	0	0	0	508	
4	0	0	0	0	514	
5	0	0	0	0	504	
6	0	0	0	0	518	
7	0	0	0	0	510	
8	0	0	0	0	516	
9	0	0	0	0	506	
10	0	0	0	0	513	
11	0	0	0	0	508	
12	0	0	0	0	515	
13	0	0	0	0	508	
14	0	0	0	0	515	
15	0	0	0	0	506	
0	0	0	0	0	516	
1	0	0	0	0	507	
2	0	0	0	0	517	
3	0	0	0	0	509	
4	0	0	0	0	514	
5	0	0	0	0	509	
6	0	0	0	0	513	
7	0	0	0	0	511	
8	0	0	0	0	515	
9	0	0	0	0	512	
10	0	0	0	0	516	
11	0	0	0	0	507	
12	0	0	0	0	511	
13	0	0	0	0	507	
14	0	0	0	0	513	
15	0	0	0	0	505	
0	0	0	0	0	513	
1	0	0	0	0	507	
2	0	0	0	0	514	
3	0	0	0	0	508	
4	0	0	0	0	515	
5	0	0	0	0	507	
6	0	0	0	0	518	
7	0	0	0	0	510	
8	0	0	0	0	516	
9	0	0	0	0	508	
10	0	0	0	0	515	
11	0	0	0	0	506	
12	0	0	0	0	516	
13	0	0	0	0	507	
14	0	0	0	0	517	
15	0	0	0	0	508	
0	0	0	0	0	514	
1	0	0	0	0	507	
2	0	0	0	0	514	
3	0	0	0	0	509	
4	0	0	0	0	511	
5	0	0	0	0	508	
6	0	0	0	0	517	
7	0	0	0	0	509	
8	0	0	0	0	515	
9	0	0	0	0	506	
10	0	0	0	0	518	
11	0	0	0	0	509	
12	0	0	0	0	513	
13	0	0	0	0	509	
14	0	0	0	0	516	
15	0	0	0	0	508	
0	0	0	0	0	516	
1	0	0	0	0	508	
2	0	0	0	0	517	
3	0	0	0	0	509	
4	0	0	0	0	514	
5	0	0	0	0	508	
6	0	0	0	0	521	
7	0	0	0	0	445	
8	0	0	0	0	565	
9	0	0	0	0	588	
10	0	0	0	0	439	
11	0	0	0	0	502	
12	0	0	0	0	542	
13	0	0	0	0	506	
14	0	0	0	0	515	
15	0	0	0	0	504	
0	0	0	0	0	513	
1	0	0	0	0	508	
2	0	0	0	0	516	
3	0	0	0	0	508	
4	0	0	0	0	513	
5	0	0	0	0	508	
6	0	0	0	0	514	
7	0	0	0	0	508	
8	0	0	0	0	512	
9	0	0	0	0	508	
10	0	0	0	0	515	
11	0	0	0	0	506	
12	0	0	0	0	512	
13	0	0	0	0	508	
14	0	0	0	0	512	
15	0	0	0	0	508	
0	0	0	0	0	513	
1	0	0	0	0	509	
2	0	0	0	0	516	
3	0	0	0	0	510	
4	0	0	0	0	515	
5	0	0	0	0	511	
6	0	0	0	0	513	
7	0	0	0	0	508	
8	0	0	0	0	511	
9	0	0	0	0	508	
10	0	0	0	0	511	
11	0	0	0	0	507	
12	0	0	0	0	512	
13	0	0	0	0	509	
14	0	0	0	0	514	
15	0	0	0	0	508	
0	0	0	0	0	513	
1	0	0	0	0	508	
2	0	0	0	0	513	
3	0	0	0	0	511	
4	0	0	0	0	510	
5	0	0	0	0	508	
6	0	0	0	0	513	
7	0	0	0	0	510	
8	0	0	0	0	513	
9	0	0	0	0	509	
10	0	0	0	0	511	
11	0	0	0	0	508	
12	0	0	0	0	513	
13	0	0	0	0	508	
14	0	0	0	0	513	
15	0	0	0	0	508	
0	0	0	0	0	514	
1	0	0	0	0	505	
2	0	0	0	0	512	
3	0	0	0	0	508	
4	0	0	0	0	508	
5	0	0	0	0	510	
6	0	0	0	0	514	
7	0	0	0	0	510	
8	0	0	0	0	511	
9	0	0	0	0	509	
10	0	0	0	0	512	
11	0	0	0	0	506	
12	0	0	0	0	512	
13	0	0	0	0	508	
14	0	0	0	0	514	
15	0	0	0	0	507	
0	0	0	0	0	514	
1	0	0	0	0	507	
2	0	0	0	0	516	
3	0	0	0	0	506	
4	0	0	0	0	515	
5	0	0	0	0	509	
6	0	0	0	0	518	
7	0	0	0	0	490	
8	0	0	0	0	498	
9	0	0	0	0	598	
10	0	0	0	0	485	
11	0	0	0	0	477	
12	0	0	0	0	531	
13	0	0	0	0	508	
14	0	0	0	0	516	
15	0	0	0	0	506	
0	0	0	0	0	512	
1	0	0	0	0	508	
2	0	0	0	0	515	
3	0	0	0	0	508	
4	0	0	0	0	515	
5	0	0	0	0	507	
6	0	0	0	0	515	
7	0	0	0	0	508	
8	0	0	0	0	514	
9	0	0	0	0	508	
10	0	0	0	0	515	
11	0	0	0	0	507	
12	0	0	0	0	513	
13	0	0	0	0	507	
14	0	0	0	0	516	
15	0	0	0	0	507	
0	0	0	0	0	516	
1	0	0	0	0	508	
2	0	0	0	0	515	
3	0	0	0	0	512	
4	0	0	0	0	518	
5	0	0	0	0	511	
6	0	0	0	0	517	
7	0	0	0	0	505	
8	0	0	0	0	512	
9	0	0	0	0	506	
10	0	0	0	0	513	
11	0	0	0	0	506	
12	0	0	0	0	513	
13	0	0	0	0	507	
14	0	0	0	0	513	
15	0	0	0	0	506	
0	0	0	0	0	512	
1	0	0	0	0	508	
2	0	0	0	0	515	
3	0	0	0	0	507	
4	0	0	0	0	515	
5	0	0	0	0	509	
6	0	0	0	0	515	
7	0	0	0	0	508	
8	0	0	0	0	515	
9	0	0	0	0	508	
10	0	0	0	0	512	
11	0	0	0	0	508	
12	0	0	0	0	513	
13	0	0	0	0	507	
14	0	0	0	0	512	
15	0	0	0	0	506	
0	0	0	0	0	511	
1	0	0	0	0	508	
2	0	0	0	0	512	
3	0	0	0	0	509	
4	0	0	0	0	513	
5	0	0	0	0	509	
6	0	0	0	0	511	
7	0	0	0	0	508	
8	0	0	0	0	513	
9	0	0	0	0	508	
10	0	0	0	0	513	
11	0	0	0	0	508	
12	0	0	0	0	513	
13	0	0	0	0	507	
14	0	0	0	0	515	
15	0	0	0	0	508	
0	0	0	0	0	516	
1	0	0	0	0	512	
2	0	0	0	0	515	
3	0	0	0	0	505	
4	0	0	0	0	513	
5	0	0	0	0	509	
6	0	0	0	0	513	
7	0	0	0	0	508	
8	0	0	0	0	513	
9	0	0	0	0	511	
10	0	0	0	0	512	
11	0	0	0	0	508	
12	0	0	0	0	513	
13	0	0	0	0	507	
14	0	0	0	0	514	
15	0	0	0	0	508	
0	0	0	0	0	517	
1	0	0	0	0	511	
2	0	0	0	0	509	
3	0	0	0	0	444	
4	0	0	0	0	587	
5	0	0	0	0	520	
6	0	0	0	0	431	
7	0	0	0	0	528	
8	0	0	0	0	518	
9	0	0	0	0	506	
10	0	0	0	0	514	
11	0	0	0	0	504	
12	0	0	0	0	512	
13	0	0	0	0	508	
14	0	0	0	0	514	
15	0	0	0	0	506	
0	0	0	0	0	512	
1	0	0	0	0	507	
2	0	0	0	0	513	
3	0	0	0	0	505	
4	0	0	0	0	513	
5	0	0	0	0	511	
6	0	0	0	0	514	
7	0	0	0	0	508	
8	0	0	0	0	511	
9	0	0	0	0	508	
10	0	0	0	0	513	
11	0	0	0	0	509	
12	0	0	0	0	515	
13	0	0	0	0	509	
14	0	0	0	0	514	
15	0	0	0	0	511	
0	0	0	0	0	511	
1	0	0	0	0	511	
2	0	0	0	0	512	
3	0	0	0	0	508	
4	0	0	0	0	513	
5	0	0	0	0	508	
6	0	0	0	0	511	
7	0	0	0	0	504	
8	0	0	0	0	511	
9	0	0	0	0	507	
10	0	0	0	0	513	
11	0	0	0	0	510	
12	0	0	0	0	515	
13	0	0	0	0	513	
14	0	0	0	0	514	
15	0	0	0	0	508	
0	0	0	0	0	511	
1	0	0	0	0	509	
2	0	0	0	0	508	
3	0	0	0	0	508	
4	0	0	0	0	514	
5	0	0	0	0	507	
6	0	0	0	0	513	
7	0	0	0	0	508	
8	0	0	0	0	513	
9	0	0	0	0	508	
10	0	0	0	0	516	
11	0	0	0	0	509	
12	0	0	0	0	509	
13	0	0	0	0	510	
14	0	0	0	0	519	
15	0	0	0	0	507	
0	0	0	0	0	513	
1	0	0	0	0	506	
2	0	0	0	0	511	
3	0	0	0	0	510	
4	0	0	0	0	511	
5	0	0	0	0	504	
6	0	0	0	0	514	
7	0	0	0	0	515	
8	0	0	0	0	517	
9	0	0	0	0	503	
10	0	0	0	0	516	
11	0	0	0	0	504	
12	0	0	0	0	511	
13	0	0	0	0	505	
14	0	0	0	0	516	
15	0	0	0	0	517	
0	0	0	0	0	514	
1	0	0	0	0	499	
2	0	0	0	0	526	
3	0	0	0	0	519	
4	0	0	0	0	508	
5	0	0	0	0	505	
6	0	0	0	0	512	
7	0	0	0	0	500	
8	0	0	0	0	512	
9	0	0	0	0	517	
10	0	0	0	0	496	
11	0	0	0	0	496	
12	0	0	0	0	567	
13	0	0	0	0	506	
14	0	0	0	0	445	
15	0	0	0	0	528	
0	0	0	0	0	521	
1	0	0	0	0	505	
2	0	0	0	0	521	
3	0	0	0	0	504	
4	0	0	0	0	519	
5	0	0	0	0	507	
6	0	0	0	0	503	
7	0	0	0	0	511	
8	0	0	0	0	508	
9	0	0	0	0	516	
10	0	0	0	0	510	
11	0	0	0	0	513	
12	0	0	0	0	507	
13	0	0	0	0	511	
14	0	0	0	0	514	
15	0	0	0	0	510	
0	0	0	0	0	503	
1	0	0	0	0	510	
2	0	0	0	0	503	
3	0	0	0	0	513	
4	0	0	0	0	509	
5	0	0	0	0	505	
6	0	0	0	0	504	
7	0	0	0	0	507	
8	0	0	0	0	526	
9	0	0	0	0	499	
10	0	0	0	0	506	
11	0	0	0	0	505	
12	0	0	0	0	509	
13	0	0	0	0	513	
14	0	0	0	0	505	
15	0	0	0	0	506	
0	0	0	0	0	508	
1	0	0	0	0	509	
2	0	0	0	0	518	
3	0	0	0	0	494	
4	0	0	0	0	520	
5	0	0	0	0	502	
6	0	0	0	0	524	
7	0	0	0	0	480	
8	0	0	0	0	531	
9	0	0	0	0	503	
10	0	0	0	0	505	
11	0	0	0	0	520	
12	0	0	0	0	514	
13	0	0	0	0	513	
14	0	0	0	0	513	
15	0	0	0	0	515	
0	0	0	0	0	503	
1	0	0	0	0	513	
2	0	0	0	0	497	
3	0	0	0	0	499	
4	0	0	0	0	488	
5	0	0	0	0	511	
6	0	0	0	0	511	
7	0	0	0	0	519	
8	0	0	0	0	477	
9	0	0	0	0	531	
10	0	0	0	0	507	
11	0	0	0	0	514	
12	0	0	0	0	498	
13	0	0	0	0	510	
14	0	0	0	0	487	
15	0	0	0	0	535	
0	0	0	0	0	502	
1	0	0	0	0	516	
2	0	0	0	0	494	
3	0	0	0	0	528	
4	0	0	0	0	494	
5	0	0	0	0	514	
6	0	0	0	0	496	
7	0	0	0	0	521	
8	0	0	0	0	491	
9	0	0	0	0	486	
10	0	0	0	0	537	
11	0	0	0	0	483	
12	0	0	0	0	459	
13	0	0	0	0	578	
14	0	0	0	0	523	
15	0	0	0	0	408	
0	0	0	0	0	591	
1	0	0	0	0	502	
2	0	0	0	0	503	
3	0	0	0	0	550	
4	0	0	0	0	469	
5	0	0	0	0	504	
6	0	0	0	0	524	
7	0	0	0	0	484	
8	0	0	0	0	523	
9	0	0	0	0	504	
10	0	0	0	0	532	
11	0	0	0	0	503	
12	0	0	0	0	515	
13	0	0	0	0	494	
14	0	0	0	0	512	
15	0	0	0	0	511	
0	0	0	0	0	514	
1	0	0	0	0	522	
2	0	0	0	0	491	
3	0	0	0	0	527	
4	0	0	0	0	480	
5	0	0	0	0	538	
6	0	0	0	0	492	
7	0	0	0	0	476	
8	0	0	0	0	544	
9	0	0	0	0	522	
10	0	0	0	0	478	
11	0	0	0	0	543	
12	0	0	0	0	516	
13	0	0	0	0	493	
14	0	0	0	0	468	
15	0	0	0	0	582	
0	0	0	0	0	483	
1	0	0	0	0	489	
2	0	0	0	0	540	
3	0	0	0	0	464	
4	0	0	0	0	539	
5	0	0	0	0	496	
6	0	0	0	0	549	
7	0	0	0	0	464	
8	0	0	0	0	527	
9	0	0	0	0	517	
10	0	0	0	0	510	
11	0	0	0	0	542	
12	0	0	0	0	402	
13	0	0	0	0	559	
14	0	0	0	0	552	
15	0	0	0	0	376	
0	0	0	0	0	612	
1	0	0	0	0	527	
2	0	0	0	0	472	
3	0	0	0	0	533	
4	0	0	0	0	463	
5	0	0	0	0	516	
6	0	0	0	0	507	
7	0	0	0	0	529	
8	0	0	0	0	508	
9	0	0	0	0	511	
10	0	0	0	0	499	
11	0	0	0	0	533	
12	0	0	0	0	510	
13	0	0	0	0	480	
14	0	0	0	0	508	
15	0	0	0	0	514	
0	0	0	0	0	501	
1	0	0	0	0	520	
2	0	0	0	0	503	
3	0	0	0	0	519	
4	0	0	0	0	510	
5	0	0	0	0	510	
6	0	0	0	0	538	
7	0	0	0	0	489	
8	0	0	0	0	519	
9	0	0	0	0	495	
10	0	0	0	0	496	
11	0	0	0	0	567	
12	0	0	0	0	548	
13	0	0	0	0	382	
14	0	0	0	0	559	
15	0	0	0	0	546	
0	0	0	0	0	446	
1	0	0	0	0	502	
2	0	0	0	0	550	
3	0	0	0	0	536	
4	0	0	0	0	489	
5	0	0	0	0	512	
6	0	0	0	0	493	
7	0	0	0	0	539	
8	0	0	0	0	504	
9	0	0	0	0	494	
10	0	0	0	0	529	
11	0	0	0	0	510	
12	0	0	0	0	529	
13	0	0	0	0	438	
14	0	0	0	0	556	
15	0	0	0	0	493	
0	0	0	0	0	514	
1	0	0	0	0	506	
2	0	0	0	0	519	
3	0	0	0	0	511	
4	0	0	0	0	548	
5	0	0	0	0	489	
6	0	0	0	0	528	
7	0	0	0	0	504	
8	0	0	0	0	506	
9	0	0	0	0	507	
10	0	0	0	0	506	
11	0	0	0	0	496	
12	0	0	0	0	519	
13	0	0	0	0	513	
14	0	0	0	0	511	
15	0	0	0	0	508	
0	0	0	0	0	504	
1	0	0	0	0	519	
2	0	0	0	0	499	
3	0	0	0	0	511	
4	0	0	0	0	512	
5	0	0	0	0	520	
6	0	0	0	0	483	
7	0	0	0	0	513	
8	0	0	0	0	527	
9	0	0	0	0	492	
10	0	0	0	0	526	
11	0	0	0	0	512	
12	0	0	0	0	504	
13	0	0	0	0	450	
14	0	0	0	0	532	
15	0	0	0	0	520	
0	0	0	0	0	510	
1	0	0	0	0	499	
2	0	0	0	0	524	
3	0	0	0	0	537	
4	0	0	0	0	444	
5	0	0	0	0	519	
6	0	0	0	0	536	
7	0	0	0	0	490	
8	0	0	0	0	512	
9	0	0	0	0	519	
10	0	0	0	0	552	
11	0	0	0	0	464	
12	0	0	0	0	513	
13	0	0	0	0	561	
14	0	0	0	0	523	
15	0	0	0	0	468	
0	0	0	0	0	536	
1	0	0	0	0	457	
2	0	0	0	0	543	
3	0	0	0	0	500	
4	0	0	0	0	492	
5	0	0	0	0	581	
6	0	0	0	0	505	
7	0	0	0	0	468	
8	0	0	0	0	568	
9	0	0	0	0	540	
10	0	0	0	0	545	
11	0	0	0	0	534	
12	0	0	0	0	463	
13	0	0	0	0	551	
14	0	0	0	0	519	
15	0	0	0	0	482	
0	0	0	0	0	572	
1	0	0	0	0	451	
2	0	0	0	0	488	
3	0	0	0	0	608	
4	0	0	0	0	457	
5	0	0	0	0	510	
6	0	0	0	0	462	
7	0	0	0	0	519	
8	0	0	0	0	449	
9	0	0	0	0	440	
10	0	0	0	0	552	
11	0	0	0	0	510	
12	0	0	0	0	522	
13	0	0	0	0	517	
14	0	0	0	0	531	
15	0	0	0	0	434	
0	0	0	0	0	527	
1	0	0	0	0	515	
2	0	0	0	0	536	
3	0	0	0	0	580	
4	0	0	0	0	409	
5	0	0	0	0	521	
6	0	0	0	0	587	
7	0	0	0	0	500	
8	0	0	0	0	468	
9	0	0	0	0	506	
10	0	0	0	0	620	
11	0	0	0	0	423	
12	0	0	0	0	563	
13	0	0	0	0	484	
14	0	0	0	0	528	
15	0	0	0	0	480	
0	0	0	0	0	608	
1	0	0	0	0	436	
2	0	0	0	0	571	
3	0	0	0	0	479	
4	0	0	0	0	533	
5	0	0	0	0	488	
6	0	0	0	0	527	
7	0	0	0	0	536	
8	0	0	0	0	526	
9	0	0	0	0	547	
10	0	0	0	0	513	
11	0	0	0	0	556	
12	0	0	0	0	532	
13	0	0	0	0	431	
14	0	0	0	0	533	
15	0	0	0	0	500	
0	0	0	0	0	551	
1	0	0	0	0	452	
2	0	0	0	0	579	
3	0	0	0	0	497	
4	0	0	0	0	528	
5	0	0	0	0	517	
6	0	0	0	0	561	
7	0	0	0	0	403	
8	0	0	0	0	561	
9	0	0	0	0	531	
10	0	0	0	0	462	
11	0	0	0	0	561	
12	0	0	0	0	439	
13	0	0	0	0	559	
14	0	0	0	0	478	
15	0	0	0	0	552	
0	0	0	0	0	567	
1	0	0	0	0	465	
2	0	0	0	0	500	
3	0	0	0	0	526	
4	0	0	0	0	486	
5	0	0	0	0	495	
6	0	0	0	0	530	
7	0	0	0	0	512	
8	0	0	0	0	484	
9	0	0	0	0	519	
10	0	0	0	0	508	
11	0	0	0	0	546	
12	0	0	0	0	455	
13	0	0	0	0	581	
14	0	0	0	0	504	
15	0	0	0	0	481	
0	0	0	0	0	467	
1	0	0	0	0	627	
2	0	0	0	0	417	
3	0	0	0	0	574	
4	0	0	0	0	517	
5	0	0	0	0	494	
6	0	0	0	0	488	
7	0	0	0	0	546	
8	0	0	0	0	410	
9	0	0	0	0	539	
10	0	0	0	0	486	
11	0	0	0	0	377	
12	0	0	0	0	551	
13	0	0	0	0	545	
14	0	0	0	0	450	
15	0	0	0	0	543	
0	0	0	0	0	461	
1	0	0	0	0	499	
2	0	0	0	0	447	
3	0	0	0	0	525	
4	0	0	0	0	561	
5	0	0	0	0	511	
6	0	0	0	0	526	
7	0	0	0	0	447	
8	0	0	0	0	633	
9	0	0	0	0	450	
10	0	0	0	0	596	
11	0	0	0	0	493	
12	0	0	0	0	547	
13	0	0	0	0	464	
14	0	0	0	0	480	
15	0	0	0	0	540	
0	0	0	0	0	520	
1	0	0	0	0	480	
2	0	0	0	0	487	
3	0	0	0	0	500	
4	0	0	0	0	529	
5	0	0	0	0	383	
6	0	0	0	0	582	
7	0	0	0	0	451	
8	0	0	0	0	639	
9	0	0	0	0	433	
10	0	0	0	0	545	
11	0	0	0	0	497	
12	0	0	0	0	515	
13	0	0	0	0	531	
14	0	0	0	0	385	
15	0	0	0	0	399	
0	0	0	0	0	563	
1	0	0	0	0	413	
2	0	0	0	0	717	
3	0	0	0	0	389	
4	0	0	0	0	560	
5	0	0	0	0	603	
6	0	0	0	0	545	
7	0	0	0	0	531	
8	0	0	0	0	558	
9	0	0	0	0	604	
10	0	0	0	0	544	
11	0	0	0	0	350	
12	0	0	0	0	712	
13	0	0	0	0	384	
14	0	0	0	0	452	
15	0	0	0	0	359	
0	0	0	0	0	679	
1	0	0	0	0	670	
2	0	0	0	0	353	
3	0	0	0	0	531	
4	0	0	0	0	455	
5	0	0	0	0	514	
6	0	0	0	0	638	
7	0	0	0	0	92	
8	0	0	0	0	824	
9	0	0	0	0	382	
10	0	0	0	0	383	
11	0	0	0	0	525	
12	0	0	0	0	656	
13	0	0	0	0	597	
14	0	0	0	0	592	
15	0	0	0	0	442	
0	0	0	0	0	783	
1	0	0	0	0	453	
2	0	0	0	0	386	
3	0	0	0	0	628	
4	0	0	0	0	384	
5	0	0	0	0	421	
6	0	0	0	0	519	
7	0	0	0	0	712	
8	0	0	0	0	633	
9	0	0	0	0	304	
10	0	0	0	0	474	
11	0	0	0	0	719	
12	0	0	0	0	190	
13	0	0	0	0	733	
14	0	0	0	0	444	
15	0	0	0	0	441	
0	0	0	0	0	655	
1	0	0	0	0	400	
2	0	0	0	0	728	
3	0	0	0	0	365	
4	0	0	0	0	344	
5	0	0	0	0	632	
6	0	0	0	0	412	
7	0	0	0	0	647	
8	0	0	0	0	522	
9	0	0	0	0	409	
10	0	0	0	0	722	
11	0	0	0	0	352	
12	0	0	0	0	595	
13	0	0	0	0	345	
14	0	0	0	0	570	
15	0	0	0	0	558	
0	0	0	0	0	573	
1	0	0	0	0	450	
2	0	0	0	0	546	
3	0	0	0	0	666	
4	0	0	0	0	503	
5	0	0	0	0	518	
6	0	0	0	0	589	
7	0	0	0	0	531	
8	0	0	0	0	499	
9	0	0	0	0	482	
10	0	0	0	0	567	
11	0	0	0	0	470	
12	0	0	0	0	623	
13	0	0	0	0	505	
14	0	0	0	0	469	
15	0	0	0	0	377	
0	0	0	0	0	512	
1	0	0	0	0	739	
2	0	0	0	0	319	
3	0	0	0	0	606	
4	0	0	0	0	563	
5	0	0	0	0	510	
6	0	0	0	0	432	
7	0	0	0	0	400	
8	0	0	0	0	472	
9	0	0	0	0	596	
10	0	0	0	0	486	
11	0	0	0	0	509	
12	0	0	0	0	563	
13	0	0	0	0	548	
14	0	0	0	0	450	
15	0	0	0	0	464	
0	0	0	0	0	592	
1	0	0	0	0	614	
2	0	0	0	0	448	
3	0	0	0	0	688	
4	0	0	0	0	455	
5	0	0	0	0	261	
6	0	0	0	0	726	
7	0	0	0	0	512	
8	0	0	0	0	448	
9	0	0	0	0	459	
10	0	0	0	0	771	
11	0	0	0	0	455	
12	0	0	0	0	563	
13	0	0	0	0	266	
14	0	0	0	0	672	
15	0	0	0	0	661	
0	0	0	0	0	389	
1	0	0	0	0	621	
2	0	0	0	0	470	
3	0	0	0	0	565	
4	0	0	0	0	355	
5	0	0	0	0	372	
6	0	0	0	0	563	
7	0	0	0	0	358	
8	0	0	0	0	742	
9	0	0	0	0	400	
10	0	0	0	0	537	
11	0	0	0	0	159	
12	0	0	0	0	669	
13	0	0	0	0	631	
14	0	0	0	0	182	
15	0	0	0	0	774	
0	0	0	0	0	664	
1	0	0	0	0	511	
2	0	0	0	0	434	
3	0	0	0	0	510	
4	0	0	0	0	395	
5	0	0	0	0	565	
6	0	0	0	0	633	
7	0	0	0	0	387	
8	0	0	0	0	411	
9	0	0	0	0	717	
10	0	0	0	0	614	
11	0	0	0	0	464	
12	0	0	0	0	615	
13	0	0	0	0	487	
14	0	0	0	0	639	
15	0	0	0	0	368	
0	0	0	0	0	657	
1	0	0	0	0	489	
2	0	0	0	0	382	
3	0	0	0	0	268	
4	0	0	0	0	796	
5	0	0	0	0	445	
6	0	0	0	0	658	
7	0	0	0	0	456	
8	0	0	0	0	479	
9	0	0	0	0	737	
10	0	0	0	0	408	
11	0	0	0	0	391	
12	0	0	0	0	554	
13	0	0	0	0	600	
14	0	0	0	0	367	
15	0	0	0	0	515	
0	0	0	0	0	584	
1	0	0	0	0	562	
2	0	0	0	0	305	
3	0	0	0	0	656	
4	0	0	0	0	253	
5	0	0	0	0	601	
6	0	0	0	0	572	
7	0	0	0	0	367	
8	0	0	0	0	516	
9	0	0	0	0	546	
10	0	0	0	0	457	
11	0	0	0	0	681	
12	0	0	0	0	379	
13	0	0	0	0	442	
14	0	0	0	0	540	
15	0	0	0	0	390	
0	0	0	0	0	566	
1	0	0	0	0	520	
2	0	0	0	0	602	
3	0	0	0	0	429	
4	0	0	0	0	448	
5	0	0	0	0	553	
6	0	0	0	0	515	
7	0	0	0	0	381	
8	0	0	0	0	609	
9	0	0	0	0	479	
10	0	0	0	0	462	
11	0	0	0	0	519	
12	0	0	0	0	480	
13	0	0	0	0	475	
14	0	0	0	0	500	
15	0	0	0	0	462	
0	0	0	0	0	554	
1	0	0	0	0	441	
2	0	0	0	0	529	
3	0	0	0	0	384	
4	0	0	0	0	589	
5	0	0	0	0	483	
6	0	0	0	0	510	
7	0	0	0	0	474	
8	0	0	0	0	525	
9	0	0	0	0	521	
10	0	0	0	0	399	
11	0	0	0	0	540	
12	0	0	0	0	558	
13	0	0	0	0	376	
14	0	0	0	0	564	
15	0	0	0	0	486	
0	0	0	0	0	531	
1	0	0	0	0	489	
2	0	0	0	0	524	
3	0	0	0	0	452	
4	0	0	0	0	519	
5	0	0	0	0	536	
6	0	0	0	0	498	
7	0	0	0	0	537	
8	0	0	0	0	503	
9	0	0	0	0	515	
10	0	0	0	0	512	
11	0	0	0	0	472	
12	0	0	0	0	559	
13	0	0	0	0	506	
14	0	0	0	0	473	
15	0	0	0	0	512	
0	0	0	0	0	525	
1	0	0	0	0	462	
2	0	0	0	0	539	
3	0	0	0	0	387	
4	0	0	0	0	607	
5	0	0	0	0	467	
6	0	0	0	0	508	
7	0	0	0	0	522	
8	0	0	0	0	469	
9	0	0	0	0	517	
10	0	0	0	0	442	
11	0	0	0	0	605	
12	0	0	0	0	529	
13	0	0	0	0	436	
14	0	0	0	0	515	
15	0	0	0	0	532	
0	0	0	0	0	489	
1	0	0	0	0	528	
2	0	0	0	0	486	
3	0	0	0	0	502	
4	0	0	0	0	466	
5	0	0	0	0	548	
6	0	0	0	0	472	
7	0	0	0	0	521	
8	0	0	0	0	507	
9	0	0	0	0	513	
10	0	0	0	0	507	
11	0	0	0	0	491	
12	0	0	0	0	510	
13	0	0	0	0	487	
14	0	0	0	0	527	
15	0	0	0	0	531	
0	0	0	0	0	504	
1	0	0	0	0	514	
2	0	0	0	0	492	
3	0	0	0	0	511	
4	0	0	0	0	500	
5	0	0	0	0	523	
6	0	0	0	0	504	
7	0	0	0	0	505	
8	0	0	0	0	506	
9	0	0	0	0	507	
10	0	0	0	0	512	
11	0	0	0	0	539	
12	0	0	0	0	461	
13	0	0	0	0	488	
14	0	0	0	0	527	
15	0	0	0	0	502	
0	0	0	0	0	516	
1	0	0	0	0	511	
2	0	0	0	0	496	
3	0	0	0	0	494	
4	0	0	0	0	491	
5	0	0	0	0	518	
6	0	0	0	0	503	
7	0	0	0	0	516	
8	0	0	0	0	519	
9	0	0	0	0	507	
10	0	0	0	0	508	
11	0	0	0	0	518	
12	0	0	0	0	496	
13	0	0	0	0	516	
14	0	0	0	0	511	
15	0	0	0	0	519	
0	0	0	0	0	510	
1	0	0	0	0	515	
2	0	0	0	0	496	
3	0	0	0	0	502	
4	0	0	0	0	497	
5	0	0	0	0	504	
6	0	0	0	0	521	
7	0	0	0	0	536	
8	0	0	0	0	486	
9	0	0	0	0	521	
10	0	0	0	0	479	
11	0	0	0	0	479	
12	0	0	0	0	529	
13	0	0	0	0	510	
14	0	0	0	0	512	
15	0	0	0	0	481	
0	0	0	0	0	538	
1	0	0	0	0	588	
2	0	0	0	0	488	
3	0	0	0	0	440	
4	0	0	0	0	493	
5	0	0	0	0	486	
6	0	0	0	0	552	
7	0	0	0	0	525	
8	0	0	0	0	518	
9	0	0	0	0	512	
10	0	0	0	0	509	
11	0	0	0	0	508	
12	0	0	0	0	513	
13	0	0	0	0	504	
14	0	0	0	0	506	
15	0	0	0	0	507	
0	0	0	0	0	512	
1	0	0	0	0	508	
2	0	0	0	0	502	
3	0	0	0	0	517	
4	0	0	0	0	508	
5	0	0	0	0	513	
6	0	0	0	0	503	
7	0	0	0	0	519	
8	0	0	0	0	502	
9	0	0	0	0	512	
10	0	0	0	0	503	
11	0	0	0	0	502	
12	0	0	0	0	517	
13	0	0	0	0	512	
14	0	0	0	0	510	
15	0	0	0	0	518	
0	0	0	0	0	502	
1	0	0	0	0	502	
2	0	0	0	0	502	
3	0	0	0	0	508	
4	0	0	0	0	509	
5	0	0	0	0	506	
6	0	0	0	0	512	
7	0	0	0	0	507	
8	0	0	0	0	509	
9	0	0	0	0	526	
10	0	0	0	0	533	
11	0	0	0	0	519	
12	0	0	0	0	509	
13	0	0	0	0	508	
14	0	0	0	0	496	
15	0	0	0	0	502	
0	0	0	0	0	503	
1	0	0	0	0	503	
2	0	0	0	0	511	
3	0	0	0	0	508	
4	0	0	0	0	511	
5	0	0	0	0	514	
6	0	0	0	0	513	
7	0	0	0	0	505	
8	0	0	0	0	507	
9	0	0	0	0	503	
10	0	0	0	0	505	
11	0	0	0	0	495	
12	0	0	0	0	503	
13	0	0	0	0	506	
14	0	0	0	0	506	
15	0	0	0	0	512	
0	0	0	0	0	496	
1	0	0	0	0	508	
2	0	0	0	0	502	
3	0	0	0	0	511	
4	0	0	0	0	526	
5	0	0	0	0	457	
6	0	0	0	0	555	
7	0	0	0	0	558	
8	0	0	0	0	454	
9	0	0	0	0	504	
10	0	0	0	0	543	
11	0	0	0	0	521	
12	0	0	0	0	510	
13	0	0	0	0	495	
14	0	0	0	0	503	
15	0	0	0	0	504	
0	0	0	0	0	527	
1	0	0	0	0	518	
2	0	0	0	0	536	
3	0	0	0	0	518	
4	0	0	0	0	506	
5	0	0	0	0	506	
6	0	0	0	0	509	
7	0	0	0	0	505	
8	0	0	0	0	495	
9	0	0	0	0	495	
10	0	0	0	0	503	
11	0	0	0	0	507	
12	0	0	0	0	515	
13	0	0	0	0	507	
14	0	0	0	0	507	
15	0	0	0	0	511	
0	0	0	0	0	511	
1	0	0	0	0	512	
2	0	0	0	0	516	
3	0	0	0	0	510	
4	0	0	0	0	510	
5	0	0	0	0	505	
6	0	0	0	0	502	
7	0	0	0	0	515	
8	0	0	0	0	531	
9	0	0	0	0	516	
10	0	0	0	0	515	
11	0	0	0	0	515	
12	0	0	0	0	498	
13	0	0	0	0	493	
14	0	0	0	0	498	
15	0	0	0	0	499	
0	0	0	0	0	515	
1	0	0	0	0	526	
2	0	0	0	0	512	
3	0	0	0	0	507	
4	0	0	0	0	500	
5	0	0	0	0	504	
6	0	0	0	0	505	
7	0	0	0	0	494	
8	0	0	0	0	490	
9	0	0	0	0	498	
10	0	0	0	0	505	
11	0	0	0	0	510	
12	0	0	0	0	506	
13	0	0	0	0	506	
14	0	0	0	0	499	
15	0	0	0	0	499	
0	0	0	0	0	499	
1	0	0	0	0	504	
2	0	0	0	0	514	
3	0	0	0	0	523	
4	0	0	0	0	512	
5	0	0	0	0	504	
6	0	0	0	0	517	
7	0	0	0	0	513	
8	0	0	0	0	521	
9	0	0	0	0	515	
10	0	0	0	0	518	
11	0	0	0	0	490	
12	0	0	0	0	524	
13	0	0	0	0	579	
14	0	0	0	0	471	
15	0	0	0	0	477	
0	0	0	0	0	495	
1	0	0	0	0	496	
2	0	0	0	0	531	
3	0	0	0	0	499	
4	0	0	0	0	503	
5	0	0	0	0	574	
6	0	0	0	0	400	
7	0	0	0	0	557	
8	0	0	0	0	475	
9	0	0	0	0	504	
10	0	0	0	0	526	
11	0	0	0	0	497	
12	0	0	0	0	504	
13	0	0	0	0	511	
14	0	0	0	0	513	
15	0	0	0	0	505	
0	0	0	0	0	510	
1	0	0	0	0	505	
2	0	0	0	0	517	
3	0	0	0	0	513	
4	0	0	0	0	520	
5	0	0	0	0	512	
6	0	0	0	0	520	
7	0	0	0	0	512	
8	0	0	0	0	515	
9	0	0	0	0	552	
10	0	0	0	0	495	
11	0	0	0	0	516	
12	0	0	0	0	513	
13	0	0	0	0	513	
14	0	0	0	0	513	
15	0	0	0	0	511	
0	0	0	0	0	499	
1	0	0	0	0	505	
2	0	0	0	0	508	
3	0	0	0	0	507	
4	0	0	0	0	509	
5	0	0	0	0	487	
6	0	0	0	0	516	
7	0	0	0	0	487	
8	0	0	0	0	505	
9	0	0	0	0	566	
10	0	0	0	0	531	
11	0	0	0	0	510	
12	0	0	0	0	485	
13	0	0	0	0	481	
14	0	0	0	0	493	
15	0	0	0	0	517	
0	0	0	0	0	521	
1	0	0	0	0	513	
2	0	0	0	0	525	
3	0	0	0	0	525	
4	0	0	0	0	481	
5	0	0	0	0	518	
6	0	0	0	0	505	
7	0	0	0	0	519	
8	0	0	0	0	507	
9	0	0	0	0	496	
10	0	0	0	0	499	
11	0	0	0	0	502	
12	0	0	0	0	508	
13	0	0	0	0	501	
14	0	0	0	0	515	
15	0	0	0	0	498	
0	0	0	0	0	471	
1	0	0	0	0	597	
2	0	0	0	0	527	
3	0	0	0	0	468	
4	0	0	0	0	514	
5	0	0	0	0	506	
6	0	0	0	0	510	
7	0	0	0	0	504	
8	0	0	0	0	515	
9	0	0	0	0	507	
10	0	0	0	0	514	
11	0	0	0	0	508	
12	0	0	0	0	503	
13	0	0	0	0	506	
14	0	0	0	0	506	
15	0	0	0	0	511	
0	0	0	0	0	517	
1	0	0	0	0	521	
2	0	0	0	0	519	
3	0	0	0	0	515	
4	0	0	0	0	509	
5	0	0	0	0	496	
6	0	0	0	0	496	
7	0	0	0	0	504	
8	0	0	0	0	493	
9	0	0	0	0	497	
10	0	0	0	0	490	
11	0	0	0	0	499	
12	0	0	0	0	512	
13	0	0	0	0	517	
14	0	0	0	0	531	
15	0	0	0	0	531	
0	0	0	0	0	504	
1	0	0	0	0	499	
2	0	0	0	0	513	
3	0	0	0	0	505	
4	0	0	0	0	515	
5	0	0	0	0	505	
6	0	0	0	0	488	
7	0	0	0	0	512	
8	0	0	0	0	501	
9	0	0	0	0	505	
10	0	0	0	0	495	
11	0	0	0	0	510	
12	0	0	0	0	528	
13	0	0	0	0	503	
14	0	0	0	0	512	
15	0	0	0	0	517	
0	0	0	0	0	517	
1	0	0	0	0	500	
2	0	0	0	0	508	
3	0	0	0	0	507	
4	0	0	0	0	494	
5	0	0	0	0	533	
6	0	0	0	0	535	
7	0	0	0	0	491	
8	0	0	0	0	523	
9	0	0	0	0	493	
10	0	0	0	0	512	
11	0	0	0	0	510	
12	0	0	0	0	503	
13	0	0	0	0	521	
14	0	0	0	0	526	
15	0	0	0	0	469	
0	0	0	0	0	536	
1	0	0	0	0	469	
2	0	0	0	0	553	
3	0	0	0	0	524	
4	0	0	0	0	471	
5	0	0	0	0	468	
6	0	0	0	0	548	
7	0	0	0	0	514	
8	0	0	0	0	493	
9	0	0	0	0	496	
10	0	0	0	0	494	
11	0	0	0	0	505	
12	0	0	0	0	522	
13	0	0	0	0	502	
14	0	0	0	0	531	
15	0	0	0	0	480	
0	0	0	0	0	521	
1	0	0	0	0	511	
2	0	0	0	0	516	
3	0	0	0	0	480	
4	0	0	0	0	521	
5	0	0	0	0	514	
6	0	0	0	0	493	
7	0	0	0	0	531	
8	0	0	0	0	498	
9	0	0	0	0	491	
10	0	0	0	0	512	
11	0	0	0	0	504	
12	0	0	0	0	510	
13	0	0	0	0	525	
14	0	0	0	0	505	
15	0	0	0	0	515	
0	0	0	0	0	519	
1	0	0	0	0	499	
2	0	0	0	0	516	
3	0	0	0	0	495	
4	0	0	0	0	522	
5	0	0	0	0	502	
6	0	0	0	0	524	
7	0	0	0	0	488	
8	0	0	0	0	511	
9	0	0	0	0	522	
10	0	0	0	0	505	
11	0	0	0	0	516	
12	0	0	0	0	501	
13	0	0	0	0	507	
14	0	0	0	0	521	
15	0	0	0	0	509	
0	0	0	0	0	501	
1	0	0	0	0	522	
2	0	0	0	0	495	
3	0	0	0	0	515	
4	0	0	0	0	507	
5	0	0	0	0	507	
6	0	0	0	0	526	
7	0	0	0	0	479	
8	0	0	0	0	519	
9	0	0	0	0	468	
10	0	0	0	0	527	
11	0	0	0	0	512	
12	0	0	0	0	513	
13	0	0	0	0	491	
14	0	0	0	0	522	
15	0	0	0	0	487	
0	0	0	0	0	524	
1	0	0	0	0	487	
2	0	0	0	0	504	
3	0	0	0	0	531	
4	0	0	0	0	427	
5	0	0	0	0	555	
6	0	0	0	0	540	
7	0	0	0	0	489	
8	0	0	0	0	490	
9	0	0	0	0	557	
10	0	0	0	0	500	
11	0	0	0	0	459	
12	0	0	0	0	565	
13	0	0	0	0	526	
14	0	0	0	0	538	
15	0	0	0	0	464	
0	0	0	0	0	523	
1	0	0	0	0	531	
2	0	0	0	0	505	
3	0	0	0	0	525	
4	0	0	0	0	578	
5	0	0	0	0	437	
6	0	0	0	0	583	
7	0	0	0	0	522	
8	0	0	0	0	536	
9	0	0	0	0	415	
10	0	0	0	0	505	
11	0	0	0	0	544	
12	0	0	0	0	498	
13	0	0	0	0	518	
14	0	0	0	0	573	
15	0	0	0	0	475	
0	0	0	0	0	453	
1	0	0	0	0	583	
2	0	0	0	0	402	
3	0	0	0	0	582	
4	0	0	0	0	483	
5	0	0	0	0	455	
6	0	0	0	0	636	
7	0	0	0	0	436	
8	0	0	0	0	442	
9	0	0	0	0	690	
10	0	0	0	0	619	
11	0	0	0	0	473	
12	0	0	0	0	628	
13	0	0	0	0	343	
14	0	0	0	0	729	
15	0	0	0	0	379	
0	0	0	0	0	486	
1	0	0	0	0	274	
2	0	0	0	0	626	
3	0	0	0	0	226	
4	0	0	0	0	657	
5	0	0	0	0	702	
6	0	0	0	0	337	
7	0	0	0	0	631	
8	0	0	0	0	492	
9	0	0	0	0	321	
10	0	0	0	0	906	
11	0	0	0	0	527	
12	0	0	0	0	87	
13	0	0	0	0	721	
14	0	0	0	0	521	
15	0	0	0	0	296	
0	0	0	0	0	742	
1	0	0	0	0	572	
2	0	0	0	0	573	
3	0	0	0	0	419	
4	0	0	0	0	446	
5	0	0	0	0	1022	
6	0	0	0	0	53	
7	0	0	0	0	625	
8	0	0	0	0	471	
9	0	0	0	0	0	
10	0	0	0	0	1022	
11	0	0	0	0	96	
12	0	0	0	0	758	
13	0	0	0	0	732	
14	0	0	0	0	83	
15	0	0	0	0	601	
0	0	0	0	0	494	
1	0	0	0	0	107	
2	0	0	0	0	909	
3	0	0	0	0	769	
4	0	0	0	0	440	
5	0	0	0	0	311	
6	0	0	0	0	155	
7	0	0	0	0	856	
8	0	0	0	0	76	
9	0	0	0	0	1022	
10	0	0	0	0	246	
11	0	0	0	0	487	
12	0	0	0	0	551	
13	0	0	0	0	644	
14	0	0	0	0	958	
15	0	0	0	0	174	
0	0	0	0	0	349	
1	0	0	0	0	1022	
2	0	0	0	0	426	
3	0	0	0	0	272	
4	0	0	0	0	689	
5	0	0	0	0	131	
6	0	0	0	0	977	
7	0	0	0	0	320	
8	0	0	0	0	624	
9	0	0	0	0	379	
10	0	0	0	0	352	
11	0	0	0	0	516	
12	0	0	0	0	293	
13	0	0	0	0	904	
14	0	0	0	0	230	
15	0	0	0	0	283	
0	0	0	0	0	676	
1	0	0	0	0	423	
2	0	0	0	0	909	
3	0	0	0	0	197	
4	0	0	0	0	735	
5	0	0	0	0	201	
6	0	0	0	0	859	
7	0	0	0	0	198	
8	0	0	0	0	771	
9	0	0	0	0	650	
10	0	0	0	0	233	
11	0	0	0	0	530	
12	0	0	0	0	928	
13	0	0	0	0	137	
14	0	0	0	0	837	
15	0	0	0	0	565	
0	0	0	0	0	211	
1	0	0	0	0	509	
2	0	0	0	0	366	
3	0	0	0	0	397	
4	0	0	0	0	271	
5	0	0	0	0	265	
6	0	0	0	0	857	
7	0	0	0	0	522	
8	0	0	0	0	880	
9	0	0	0	0	453	
10	0	0	0	0	0	
11	0	0	0	0	1020	
12	0	0	0	0	211	
13	0	0	0	0	1022	
14	0	0	0	0	699	
15	0	0	0	0	320	
0	0	0	0	0	480	
1	0	0	0	0	732	
2	0	0	0	0	0	
3	0	0	0	0	631	
4	0	0	0	0	0	
5	0	0	0	0	994	
6	0	0	0	0	784	
7	0	0	0	0	663	
8	0	0	0	0	572	
9	0	0	0	0	0	
10	0	0	0	0	319	
11	0	0	0	0	237	
12	0	0	0	0	881	
13	0	0	0	0	230	
14	0	0	0	0	976	
15	0	0	0	0	568	
0	0	0	0	0	615	
1	0	0	0	0	156	
2	0	0	0	0	15	
3	0	0	0	0	786	
4	0	0	0	0	52	
5	0	0	0	0	0	
6	0	0	0	0	422	
7	0	0	0	0	447	
8	0	0	0	0	325	
9	0	0	0	0	676	
10	0	0	0	0	710	
11	0	0	0	0	657	
12	0	0	0	0	711	
13	0	0	0	0	959	
14	0	0	0	0	441	
15	0	0	0	0	211	
0	0	0	0	0	419	
1	0	0	0	0	856	
2	0	0	0	0	19	
3	0	0	0	0	475	
4	0	0	0	0	792	
5	0	0	0	0	399	
6	0	0	0	0	693	
7	0	0	0	0	628	
8	0	0	0	0	0	
9	0	0	0	0	645	
10	0	0	0	0	493	
11	0	0	0	0	411	
12	0	0	0	0	816	
13	0	0	0	0	345	
14	0	0	0	0	383	
15	0	0	0	0	668	
0	0	0	0	0	527	
1	0	0	0	0	644	
2	0	0	0	0	510	
3	0	0	0	0	422	
4	0	0	0	0	693	
5	0	0	0	0	163	
6	0	0	0	0	708	
7	0	0	0	0	494	
8	0	0	0	0	425	
9	0	0	0	0	615	
10	0	0	0	0	591	
11	0	0	0	0	643	
12	0	0	0	0	443	
13	0	0	0	0	463	
14	0	0	0	0	390	
15	0	0	0	0	448	
0	0	0	0	0	566	
1	0	0	0	0	419	
2	0	0	0	0	495	
3	0	0	0	0	544	
4	0	0	0	0	305	
5	0	0	0	0	1022	
6	0	0	0	0	0	
7	0	0	0	0	666	
8	0	0	0	0	168	
9	0	0	0	0	870	
10	0	0	0	0	79	
11	0	0	0	0	1022	
12	0	0	0	0	0	
13	0	0	0	0	588	
14	0	0	0	0	609	
15	0	0	0	0	952	
0	0	0	0	0	463	
1	0	0	0	0	984	
2	0	0	0	0	403	
3	0	0	0	0	228	
4	0	0	0	0	583	
5	0	0	0	0	337	
6	0	0	0	0	673	
7	0	0	0	0	0	
8	0	0	0	0	761	
9	0	0	0	0	671	
10	0	0	0	0	878	
11	0	0	0	0	101	
12	0	0	0	0	455	
13	0	0	0	0	170	
14	0	0	0	0	751	
15	0	0	0	0	514	
0	0	0	0	0	207	
1	0	0	0	0	1022	
2	0	0	0	0	60	
3	0	0	0	0	829	
4	0	0	0	0	563	
5	0	0	0	0	218	
6	0	0	0	0	979	
7	0	0	0	0	77	
8	0	0	0	0	605	
9	0	0	0	0	577	
10	0	0	0	0	424	
11	0	0	0	0	656	
12	0	0	0	0	339	
13	0	0	0	0	598	
14	0	0	0	0	466	
15	0	0	0	0	323	
0	0	0	0	0	582	
1	0	0	0	0	617	
2	0	0	0	0	364	
3	0	0	0	0	611	
4	0	0	0	0	313	
5	0	0	0	0	624	
6	0	0	0	0	591	
7	0	0	0	0	529	
8	0	0	0	0	583	
9	0	0	0	0	186	
10	0	0	0	0	593	
11	0	0	0	0	0	
12	0	0	0	0	964	
13	0	0	0	0	679	
14	0	0	0	0	182	
15	0	0	0	0	459	
0	0	0	0	0	372	
1	0	0	0	0	330	
2	0	0	0	0	592	
3	0	0	0	0	245	
4	0	0	0	0	1022	
5	0	0	0	0	340	
6	0	0	0	0	292	
7	0	0	0	0	577	
8	0	0	0	0	132	
9	0	0	0	0	743	
10	0	0	0	0	406	
11	0	0	0	0	737	
12	0	0	0	0	535	
13	0	0	0	0	932	
14	0	0	0	0	552	
15	0	0	0	0	459	
0	0	0	0	0	366	
1	0	0	0	0	582	
2	0	0	0	0	590	
3	0	0	0	0	702	
4	0	0	0	0	701	
5	0	0	0	0	0	
6	0	0	0	0	470	
7	0	0	0	0	626	
8	0	0	0	0	0	
9	0	0	0	0	575	
10	0	0	0	0	370	
11	0	0	0	0	824	
12	0	0	0	0	258	
13	0	0	0	0	98	
14	0	0	0	0	835	
15	0	0	0	0	507	
0	0	0	0	0	874	
1	0	0	0	0	287	
2	0	0	0	0	640	
3	0	0	0	0	448	
4	0	0	0	0	802	
5	0	0	0	0	320	
6	0	0	0	0	959	
7	0	0	0	0	39	
8	0	0	0	0	150	
9	0	0	0	0	486	
10	0	0	0	0	416	
11	0	0	0	0	699	
12	0	0	0	0	615	
13	0	0	0	0	245	
14	0	0	0	0	1015	
15	0	0	0	0	32	
0	0	0	0	0	1022	
1	0	0	0	0	276	
2	0	0	0	0	715	
3	0	0	0	0	342	
4	0	0	0	0	313	
5	0	0	0	0	466	
6	0	0	0	0	757	
7	0	0	0	0	253	
8	0	0	0	0	409	
9	0	0	0	0	618	
10	0	0	0	0	596	
11	0	0	0	0	409	
12	0	0	0	0	603	
13	0	0	0	0	527	
14	0	0	0	0	180	
15	0	0	0	0	674	
0	0	0	0	0	708	
1	0	0	0	0	322	
2	0	0	0	0	559	
3	0	0	0	0	600	
4	0	0	0	0	491	
5	0	0	0	0	368	
6	0	0	0	0	529	
7	0	0	0	0	181	
8	0	0	0	0	742	
9	0	0	0	0	485	
10	0	0	0	0	396	
11	0	0	0	0	602	
12	0	0	0	0	612	
13	0	0	0	0	611	
14	0	0	0	0	632	
15	0	0	0	0	651	
0	0	0	0	0	356	
1	0	0	0	0	448	
2	0	0	0	0	505	
3	0	0	0	0	494	
4	0	0	0	0	493	
5	0	0	0	0	880	
6	0	0	0	0	391	
7	0	0	0	0	555	
8	0	0	0	0	723	
9	0	0	0	0	580	
10	0	0	0	0	273	
11	0	0	0	0	71	
12	0	0	0	0	711	
13	0	0	0	0	805	
14	0	0	0	0	568	
15	0	0	0	0	903	
0	0	0	0	0	204	
1	0	0	0	0	476	
2	0	0	0	0	750	
3	0	0	0	0	601	
4	0	0	0	0	265	
5	0	0	0	0	633	
6	0	0	0	0	36	
7	0	0	0	0	751	
8	0	0	0	0	164	
9	0	0	0	0	661	
10	0	0	0	0	547	
11	0	0	0	0	300	
12	0	0	0	0	528	
13	0	0	0	0	627	
14	0	0	0	0	505	
15	0	0	0	0	660	
0	0	0	0	0	420	
1	0	0	0	0	424	
2	0	0	0	0	607	
3	0	0	0	0	626	
4	0	0	0	0	0	
5	0	0	0	0	1022	
6	0	0	0	0	214	
7	0	0	0	0	437	
8	0	0	0	0	682	
9	0	0	0	0	123	
10	0	0	0	0	604	
11	0	0	0	0	618	
12	0	0	0	0	201	
13	0	0	0	0	924	
14	0	0	0	0	262	
15	0	0	0	0	479	
0	0	0	0	0	516	
1	0	0	0	0	336	
2	0	0	0	0	526	
3	0	0	0	0	272	
4	0	0	0	0	796	
5	0	0	0	0	306	
6	0	0	0	0	118	
7	0	0	0	0	858	
8	0	0	0	0	0	
9	0	0	0	0	1022	
10	0	0	0	0	465	
11	0	0	0	0	0	
12	0	0	0	0	704	
13	0	0	0	0	865	
14	0	0	0	0	286	
15	0	0	0	0	469	
0	0	0	0	0	632	
1	0	0	0	0	658	
2	0	0	0	0	196	
3	0	0	0	0	402	
4	0	0	0	0	702	
5	0	0	0	0	259	
6	0	0	0	0	969	
7	0	0	0	0	173	
8	0	0	0	0	1022	
9	0	0	0	0	374	
10	0	0	0	0	296	
11	0	0	0	0	940	
12	0	0	0	0	46	
13	0	0	0	0	1022	
14	0	0	0	0	521	
15	0	0	0	0	705	
0	0	0	0	0	0	
1	0	0	0	0	613	
2	0	0	0	0	0	
3	0	0	0	0	827	
4	0	0	0	0	629	
5	0	0	0	0	408	
6	0	0	0	0	733	
7	0	0	0	0	716	
8	0	0	0	0	531	
9	0	0	0	0	404	
10	0	0	0	0	646	
11	0	0	0	0	903	
12	0	0	0	0	99	
13	0	0	0	0	700	
14	0	0	0	0	270	
15	0	0	0	0	762	
0	0	0	0	0	147	
1	0	0	0	0	543	
2	0	0	0	0	667	
3	0	0	0	0	757	
4	0	0	0	0	135	
5	0	0	0	0	632	
6	0	0	0	0	324	
7	0	0	0	0	216	
8	0	0	0	0	843	
9	0	0	0	0	613	
10	0	0	0	0	119	
11	0	0	0	0	758	
12	0	0	0	0	375	
13	0	0	0	0	407	
14	0	0	0	0	742	
15	0	0	0	0	457	
0	0	0	0	0	434	
1	0	0	0	0	567	
2	0	0	0	0	500	
3	0	0	0	0	515	
4	0	0	0	0	498	
5	0	0	0	0	345	
6	0	0	0	0	665	
7	0	0	0	0	532	
8	0	0	0	0	249	
9	0	0	0	0	745	
10	0	0	0	0	553	
11	0	0	0	0	438	
12	0	0	0	0	618	
13	0	0	0	0	435	
14	0	0	0	0	512	
15	0	0	0	0	511	
0	0	0	0	0	530	
1	0	0	0	0	462	
2	0	0	0	0	466	
3	0	0	0	0	627	
4	0	0	0	0	368	
5	0	0	0	0	624	
6	0	0	0	0	287	
7	0	0	0	0	749	
8	0	0	0	0	438	
9	0	0	0	0	455	
10	0	0	0	0	604	
11	0	0	0	0	444	
12	0	0	0	0	339	
13	0	0	0	0	910	
14	0	0	0	0	305	
15	0	0	0	0	684	
0	0	0	0	0	428	
1	0	0	0	0	536	
2	0	0	0	0	323	
3	0	0	0	0	791	
4	0	0	0	0	450	
5	0	0	0	0	375	
6	0	0	0	0	559	
7	0	0	0	0	488	
8	0	0	0	0	626	
9	0	0	0	0	448	
10	0	0	0	0	510	
11	0	0	0	0	389	
12	0	0	0	0	580	
13	0	0	0	0	521	
14	0	0	0	0	534	
15	0	0	0	0	463	
0	0	0	0	0	448	
1	0	0	0	0	608	
2	0	0	0	0	501	
3	0	0	0	0	499	
4	0	0	0	0	446	
5	0	0	0	0	578	
6	0	0	0	0	545	
7	0	0	0	0	483	
8	0	0	0	0	491	
9	0	0	0	0	551	
10	0	0	0	0	499	
11	0	0	0	0	500	
12	0	0	0	0	525	
13	0	0	0	0	471	
14	0	0	0	0	515	
15	0	0	0	0	506	
0	0	0	0	0	513	
1	0	0	0	0	502	
2	0	0	0	0	519	
3	0	0	0	0	499	
4	0	0	0	0	514	
5	0	0	0	0	505	
6	0	0	0	0	516	
7	0	0	0	0	508	
8	0	0	0	0	489	
9	0	0	0	0	499	
10	0	0	0	0	504	
11	0	0	0	0	499	
12	0	0	0	0	497	
13	0	0	0	0	512	
14	0	0	0	0	508	
15	0	0	0	0	528	
0	0	0	0	0	514	
1	0	0	0	0	524	
2	0	0	0	0	516	
3	0	0	0	0	502	
4	0	0	0	0	494	
5	0	0	0	0	516	
6	0	0	0	0	507	
7	0	0	0	0	512	
8	0	0	0	0	499	
9	0	0	0	0	511	
10	0	0	0	0	503	
11	0	0	0	0	500	
12	0	0	0	0	497	
13	0	0	0	0	560	
14	0	0	0	0	563	
15	0	0	0	0	441	
0	0	0	0	0	456	
1	0	0	0	0	514	
2	0	0	0	0	532	
3	0	0	0	0	484	
4	0	0	0	0	505	
5	0	0	0	0	537	
6	0	0	0	0	516	
7	0	0	0	0	514	
8	0	0	0	0	500	
9	0	0	0	0	499	
10	0	0	0	0	506	
11	0	0	0	0	505	
12	0	0	0	0	507	
13	0	0	0	0	528	
14	0	0	0	0	519	
15	0	0	0	0	509	
0	0	0	0	0	492	
1	0	0	0	0	425	
2	0	0	0	0	624	
3	0	0	0	0	584	
4	0	0	0	0	409	
5	0	0	0	0	537	
6	0	0	0	0	533	
7	0	0	0	0	515	
8	0	0	0	0	478	
9	0	0	0	0	499	
10	0	0	0	0	484	
11	0	0	0	0	584	
12	0	0	0	0	478	
13	0	0	0	0	467	
14	0	0	0	0	526	
15	0	0	0	0	513	
0	0	0	0	0	479	
1	0	0	0	0	493	
2	0	0	0	0	514	
3	0	0	0	0	510	
4	0	0	0	0	526	
5	0	0	0	0	521	
6	0	0	0	0	535	
7	0	0	0	0	513	
8	0	0	0	0	512	
9	0	0	0	0	506	
10	0	0	0	0	508	
11	0	0	0	0	522	
12	0	0	0	0	509	
13	0	0	0	0	521	
14	0	0	0	0	515	
15	0	0	0	0	524	
0	0	0	0	0	484	
1	0	0	0	0	503	
2	0	0	0	0	502	
3	0	0	0	0	508	
4	0	0	0	0	505	
5	0	0	0	0	495	
6	0	0	0	0	496	
7	0	0	0	0	514	
8	0	0	0	0	533	
9	0	0	0	0	518	
10	0	0	0	0	497	
11	0	0	0	0	521	
12	0	0	0	0	510	
13	0	0	0	0	509	
14	0	0	0	0	504	
15	0	0	0	0	510	
0	0	0	0	0	496	
1	0	0	0	0	492	
2	0	0	0	0	509	
3	0	0	0	0	497	
4	0	0	0	0	507	
5	0	0	0	0	528	
6	0	0	0	0	520	
7	0	0	0	0	508	
8	0	0	0	0	511	
9	0	0	0	0	523	
10	0	0	0	0	521	
11	0	0	0	0	508	
12	0	0	0	0	505	
13	0	0	0	0	510	
14	0	0	0	0	427	
15	0	0	0	0	608	
0	0	0	0	0	547	
1	0	0	0	0	419	
2	0	0	0	0	506	
3	0	0	0	0	513	
4	0	0	0	0	515	
5	0	0	0	0	518	
6	0	0	0	0	502	
7	0	0	0	0	502	
8	0	0	0	0	516	
9	0	0	0	0	508	
10	0	0	0	0	514	
11	0	0	0	0	511	
12	0	0	0	0	500	
13	0	0	0	0	507	
14	0	0	0	0	506	
15	0	0	0	0	516	
0	0	0	0	0	520	
1	0	0	0	0	489	
2	0	0	0	0	512	
3	0	0	0	0	519	
4	0	0	0	0	503	
5	0	0	0	0	499	
6	0	0	0	0	522	
7	0	0	0	0	516	
8	0	0	0	0	510	
9	0	0	0	0	508	
10	0	0	0	0	490	
11	0	0	0	0	494	
12	0	0	0	0	510	
13	0	0	0	0	503	
14	0	0	0	0	510	
15	0	0	0	0	503	
0	0	0	0	0	495	
1	0	0	0	0	514	
2	0	0	0	0	498	
3	0	0	0	0	507	
4	0	0	0	0	515	
5	0	0	0	0	489	
6	0	0	0	0	540	
7	0	0	0	0	502	
8	0	0	0	0	521	
9	0	0	0	0	503	
10	0	0	0	0	497	
11	0	0	0	0	538	
12	0	0	0	0	365	
13	0	0	0	0	670	
14	0	0	0	0	448	
15	0	0	0	0	468	
0	0	0	0	0	521	
1	0	0	0	0	500	
2	0	0	0	0	490	
3	0	0	0	0	560	
4	0	0	0	0	461	
5	0	0	0	0	564	
6	0	0	0	0	545	
7	0	0	0	0	448	
8	0	0	0	0	570	
9	0	0	0	0	524	
10	0	0	0	0	524	
11	0	0	0	0	524	
12	0	0	0	0	605	
13	0	0	0	0	531	
14	0	0	0	0	457	
15	0	0	0	0	505	
0	0	0	0	0	548	
1	0	0	0	0	485	
2	0	0	0	0	511	
3	0	0	0	0	487	
4	0	0	0	0	503	
5	0	0	0	0	479	
6	0	0	0	0	486	
7	0	0	0	0	487	
8	0	0	0	0	549	
9	0	0	0	0	448	
10	0	0	0	0	598	
11	0	0	0	0	476	
12	0	0	0	0	543	
13	0	0	0	0	488	
14	0	0	0	0	497	
15	0	0	0	0	538	
0	0	0	0	0	505	
1	0	0	0	0	424	
2	0	0	0	0	610	
3	0	0	0	0	442	
4	0	0	0	0	550	
5	0	0	0	0	493	
6	0	0	0	0	480	
7	0	0	0	0	504	
8	0	0	0	0	508	
9	0	0	0	0	491	
10	0	0	0	0	556	
11	0	0	0	0	504	
12	0	0	0	0	508	
13	0	0	0	0	514	
14	0	0	0	0	500	
15	0	0	0	0	482	
0	0	0	0	0	510	
1	0	0	0	0	513	
2	0	0	0	0	536	
3	0	0	0	0	501	
4	0	0	0	0	497	
5	0	0	0	0	495	
6	0	0	0	0	504	
7	0	0	0	0	533	
8	0	0	0	0	490	
9	0	0	0	0	532	
10	0	0	0	0	505	
11	0	0	0	0	503	
12	0	0	0	0	527	
13	0	0	0	0	512	
14	0	0	0	0	512	
15	0	0	0	0	528	
0	0	0	0	0	484	
1	0	0	0	0	511	
2	0	0	0	0	524	
3	0	0	0	0	503	
4	0	0	0	0	508	
5	0	0	0	0	507	
6	0	0	0	0	519	
7	0	0	0	0	512	
8	0	0	0	0	446	
9	0	0	0	0	614	
10	0	0	0	0	476	
11	0	0	0	0	455	
12	0	0	0	0	520	
13	0	0	0	0	521	
14	0	0	0	0	502	
15	0	0	0	0	495	
0	0	0	0	0	499	
1	0	0	0	0	517	
2	0	0	0	0	524	
3	0	0	0	0	505	
4	0	0	0	0	507	
5	0	0	0	0	519	
6	0	0	0	0	514	
7	0	0	0	0	502	
8	0	0	0	0	506	
9	0	0	0	0	516	
10	0	0	0	0	536	
11	0	0	0	0	508	
12	0	0	0	0	509	
13	0	0	0	0	514	
14	0	0	0	0	502	
15	0	0	0	0	522	
0	0	0	0	0	510	
1	0	0	0	0	500	
2	0	0	0	0	536	
3	0	0	0	0	515	
4	0	0	0	0	509	
5	0	0	0	0	510	
6	0	0	0	0	523	
7	0	0	0	0	521	
8	0	0	0	0	487	
9	0	0	0	0	515	
10	0	0	0	0	501	
11	0	0	0	0	511	
12	0	0	0	0	504	
13	0	0	0	0	514	
14	0	0	0	0	500	
15	0	0	0	0	514	
0	0	0	0	0	503	
1	0	0	0	0	499	
2	0	0	0	0	500	
3	0	0	0	0	495	
4	0	0	0	0	503	
5	0	0	0	0	531	
6	0	0	0	0	496	
7	0	0	0	0	526	
8	0	0	0	0	498	
9	0	0	0	0	503	
10	0	0	0	0	487	
11	0	0	0	0	517	
12	0	0	0	0	559	
13	0	0	0	0	484	
14	0	0	0	0	488	
15	0	0	0	0	572	
0	0	0	0	0	564	
1	0	0	0	0	455	
2	0	0	0	0	467	
3	0	0	0	0	498	
4	0	0	0	0	505	
5	0	0	0	0	519	
6	0	0	0	0	459	
7	0	0	0	0	622	
8	0	0	0	0	500	
9	0	0	0	0	459	
10	0	0	0	0	506	
11	0	0	0	0	516	
12	0	0	0	0	542	
13	0	0	0	0	492	
14	0	0	0	0	516	
15	0	0	0	0	519	
0	0	0	0	0	451	
1	0	0	0	0	528	
2	0	0	0	0	491	
3	0	0	0	0	483	
4	0	0	0	0	528	
5	0	0	0	0	472	
6	0	0	0	0	549	
7	0	0	0	0	484	
8	0	0	0	0	526	
9	0	0	0	0	487	
10	0	0	0	0	540	
11	0	0	0	0	451	
12	0	0	0	0	544	
13	0	0	0	0	543	
14	0	0	0	0	514	
15	0	0	0	0	475	
0	0	0	0	0	551	
1	0	0	0	0	371	
2	0	0	0	0	561	
3	0	0	0	0	519	
4	0	0	0	0	440	
5	0	0	0	0	472	
6	0	0	0	0	523	
7	0	0	0	0	539	
8	0	0	0	0	384	
9	0	0	0	0	591	
10	0	0	0	0	429	
11	0	0	0	0	561	
12	0	0	0	0	576	
13	0	0	0	0	444	
14	0	0	0	0	564	
15	0	0	0	0	491	
0	0	0	0	0	614	
1	0	0	0	0	456	
2	0	0	0	0	514	
3	0	0	0	0	374	
4	0	0	0	0	526	
5	0	0	0	0	621	
6	0	0	0	0	498	
7	0	0	0	0	540	
8	0	0	0	0	620	
9	0	0	0	0	515	
10	0	0	0	0	526	
11	0	0	0	0	328	
12	0	0	0	0	570	
13	0	0	0	0	534	
14	0	0	0	0	503	
15	0	0	0	0	500	
0	0	0	0	0	623	
1	0	0	0	0	457	
2	0	0	0	0	675	
3	0	0	0	0	446	
4	0	0	0	0	576	
5	0	0	0	0	373	
6	0	0	0	0	614	
7	0	0	0	0	359	
8	0	0	0	0	597	
9	0	0	0	0	427	
10	0	0	0	0	312	
11	0	0	0	0	661	
12	0	0	0	0	475	
13	0	0	0	0	535	
14	0	0	0	0	447	
15	0	0	0	0	523	
0	0	0	0	0	534	
1	0	0	0	0	599	
2	0	0	0	0	381	
3	0	0	0	0	379	
4	0	0	0	0	749	
5	0	0	0	0	352	
6	0	0	0	0	519	
7	0	0	0	0	480	
8	0	0	0	0	532	
9	0	0	0	0	700	
10	0	0	0	0	129	
11	0	0	0	0	548	
12	0	0	0	0	439	
13	0	0	0	0	264	
14	0	0	0	0	881	
15	0	0	0	0	641	
0	0	0	0	0	318	
1	0	0	0	0	572	
2	0	0	0	0	276	
3	0	0	0	0	575	
4	0	0	0	0	528	
5	0	0	0	0	348	
6	0	0	0	0	531	
7	0	0	0	0	557	
8	0	0	0	0	306	
9	0	0	0	0	825	
10	0	0	0	0	399	
11	0	0	0	0	345	
12	0	0	0	0	758	
13	0	0	0	0	246	
14	0	0	0	0	885	
15	0	0	0	0	236	
0	0	0	0	0	630	
1	0	0	0	0	232	
2	0	0	0	0	746	
3	0	0	0	0	331	
4	0	0	0	0	523	
5	0	0	0	0	552	
6	0	0	0	0	464	
7	0	0	0	0	640	
8	0	0	0	0	242	
9	0	0	0	0	732	
10	0	0	0	0	341	
11	0	0	0	0	814	
12	0	0	0	0	267	
13	0	0	0	0	757	
14	0	0	0	0	198	
15	0	0	0	0	552	
0	0	0	0	0	647	
1	0	0	0	0	643	
2	0	0	0	0	301	
3	0	0	0	0	388	
4	0	0	0	0	540	
5	0	0	0	0	377	
6	0	0	0	0	694	
7	0	0	0	0	144	
8	0	0	0	0	329	
9	0	0	0	0	1022	
10	0	0	0	0	262	
11	0	0	0	0	794	
12	0	0	0	0	210	
13	0	0	0	0	384	
14	0	0	0	0	937	
15	0	0	0	0	0	
0	0	0	0	0	770	
1	0	0	0	0	192	
2	0	0	0	0	493	
3	0	0	0	0	398	
4	0	0	0	0	945	
5	0	0	0	0	0	
6	0	0	0	0	580	
7	0	0	0	0	75	
8	0	0	0	0	561	
9	0	0	0	0	675	
10	0	0	0	0	235	
11	0	0	0	0	238	
12	0	0	0	0	1022	
13	0	0	0	0	0	
14	0	0	0	0	885	
15	0	0	0	0	785	
0	0	0	0	0	0	
1	0	0	0	0	975	
2	0	0	0	0	213	
3	0	0	0	0	624	
4	0	0	0	0	824	
5	0	0	0	0	198	
6	0	0	0	0	700	
7	0	0	0	0	179	
8	0	0	0	0	729	
9	0	0	0	0	45	
10	0	0	0	0	973	
11	0	0	0	0	110	
12	0	0	0	0	530	
13	0	0	0	0	697	
14	0	0	0	0	857	
15	0	0	0	0	495	
0	0	0	0	0	1022	
1	0	0	0	0	80	
2	0	0	0	0	301	
3	0	0	0	0	1022	
4	0	0	0	0	309	
5	0	0	0	0	184	
6	0	0	0	0	737	
7	0	0	0	0	760	
8	0	0	0	0	273	
9	0	0	0	0	564	
10	0	0	0	0	251	
11	0	0	0	0	767	
12	0	0	0	0	518	
13	0	0	0	0	374	
14	0	0	0	0	562	
15	0	0	0	0	463	
0	0	0	0	0	631	
1	0	0	0	0	601	
2	0	0	0	0	376	
3	0	0	0	0	599	
4	0	0	0	0	498	
5	0	0	0	0	440	
6	0	0	0	0	719	
7	0	0	0	0	411	
8	0	0	0	0	635	
9	0	0	0	0	444	
10	0	0	0	0	541	
11	0	0	0	0	568	
12	0	0	0	0	597	
13	0	0	0	0	455	
14	0	0	0	0	270	
15	0	0	0	0	985	
0	0	0	0	0	231	
1	0	0	0	0	580	
2	0	0	0	0	455	
3	0	0	0	0	496	
4	0	0	0	0	502	
5	0	0	0	0	543	
6	0	0	0	0	627	
7	0	0	0	0	236	
8	0	0	0	0	547	
9	0	0	0	0	587	
10	0	0	0	0	303	
11	0	0	0	0	587	
12	0	0	0	0	485	
13	0	0	0	0	457	
14	0	0	0	0	348	
15	0	0	0	0	887	
0	0	0	0	0	595	
1	0	0	0	0	528	
2	0	0	0	0	819	
3	0	0	0	0	462	
4	0	0	0	0	0	
5	0	0	0	0	877	
6	0	0	0	0	204	
7	0	0	0	0	698	
8	0	0	0	0	366	
9	0	0	0	0	634	
10	0	0	0	0	747	
11	0	0	0	0	295	
12	0	0	0	0	692	
13	0	0	0	0	693	
14	0	0	0	0	345	
15	0	0	0	0	351	
0	0	0	0	0	748	
1	0	0	0	0	120	
2	0	0	0	0	1002	
3	0	0	0	0	383	
4	0	0	0	0	483	
5	0	0	0	0	344	
6	0	0	0	0	517	
7	0	0	0	0	704	
8	0	0	0	0	312	
9	0	0	0	0	686	
10	0	0	0	0	322	
11	0	0	0	0	411	
12	0	0	0	0	436	
13	0	0	0	0	1022	
14	0	0	0	0	603	
15	0	0	0	0	40	
0	0	0	0	0	369	
1	0	0	0	0	232	
2	0	0	0	0	1022	
3	0	0	0	0	248	
4	0	0	0	0	142	
5	0	0	0	0	1022	
6	0	0	0	0	103	
7	0	0	0	0	564	
8	0	0	0	0	332	
9	0	0	0	0	679	
10	0	0	0	0	1022	
11	0	0	0	0	59	
12	0	0	0	0	928	
13	0	0	0	0	792	
14	0	0	0	0	931	
15	0	0	0	0	249	
0	0	0	0	0	807	
1	0	0	0	0	165	
2	0	0	0	0	814	
3	0	0	0	0	155	
4	0	0	0	0	995	
5	0	0	0	0	0	
6	0	0	0	0	961	
7	0	0	0	0	859	
8	0	0	0	0	422	
9	0	0	0	0	809	
10	0	0	0	0	292	
11	0	0	0	0	834	
12	0	0	0	0	0	
13	0	0	0	0	834	
14	0	0	0	0	525	
15	0	0	0	0	631	
0	0	0	0	0	821	
1	0	0	0	0	0	
2	0	0	0	0	532	
3	0	0	0	0	710	
4	0	0	0	0	535	
5	0	0	0	0	9	
6	0	0	0	0	0	
7	0	0	0	0	602	
8	0	0	0	0	481	
9	0	0	0	0	875	
10	0	0	0	0	160	
11	0	0	0	0	19	
12	0	0	0	0	309	
13	0	0	0	0	831	
14	0	0	0	0	247	
15	0	0	0	0	770	
0	0	0	0	0	656	
1	0	0	0	0	561	
2	0	0	0	0	216	
3	0	0	0	0	1022	
4	0	0	0	0	644	
5	0	0	0	0	267	
6	0	0	0	0	543	
7	0	0	0	0	544	
8	0	0	0	0	486	
9	0	0	0	0	102	
10	0	0	0	0	868	
11	0	0	0	0	593	
12	0	0	0	0	203	
13	0	0	0	0	489	
14	0	0	0	0	463	
15	0	0	0	0	651	
0	0	0	0	0	441	
1	0	0	0	0	557	
2	0	0	0	0	737	
3	0	0	0	0	235	
4	0	0	0	0	544	
5	0	0	0	0	616	
6	0	0	0	0	591	
7	0	0	0	0	495	
8	0	0	0	0	445	
9	0	0	0	0	510	
10	0	0	0	0	420	
11	0	0	0	0	452	
12	0	0	0	0	617	
13	0	0	0	0	532	
14	0	0	0	0	597	
15	0	0	0	0	381	
0	0	0	0	0	686	
1	0	0	0	0	356	
2	0	0	0	0	615	
3	0	0	0	0	455	
4	0	0	0	0	611	
5	0	0	0	0	440	
6	0	0	0	0	493	
7	0	0	0	0	540	
8	0	0	0	0	466	
9	0	0	0	0	532	
10	0	0	0	0	545	
11	0	0	0	0	416	
12	0	0	0	0	610	
13	0	0	0	0	488	
14	0	0	0	0	506	
15	0	0	0	0	495	
0	0	0	0	0	510	
1	0	0	0	0	535	
2	0	0	0	0	486	
3	0	0	0	0	522	
4	0	0	0	0	510	
5	0	0	0	0	496	
6	0	0	0	0	511	
7	0	0	0	0	503	
8	0	0	0	0	536	
9	0	0	0	0	474	
10	0	0	0	0	525	
11	0	0	0	0	479	
12	0	0	0	0	512	
13	0	0	0	0	489	
14	0	0	0	0	532	
15	0	0	0	0	508	
0	0	0	0	0	497	
1	0	0	0	0	523	
2	0	0	0	0	499	
3	0	0	0	0	520	
4	0	0	0	0	502	
5	0	0	0	0	542	
6	0	0	0	0	511	
7	0	0	0	0	486	
8	0	0	0	0	486	
9	0	0	0	0	516	
10	0	0	0	0	504	
11	0	0	0	0	527	
12	0	0	0	0	503	
13	0	0	0	0	513	
14	0	0	0	0	505	
15	0	0	0	0	517	
0	0	0	0	0	472	
1	0	0	0	0	516	
2	0	0	0	0	516	
3	0	0	0	0	487	
4	0	0	0	0	496	
5	0	0	0	0	503	
6	0	0	0	0	510	
7	0	0	0	0	465	
8	0	0	0	0	571	
9	0	0	0	0	545	
10	0	0	0	0	460	
11	0	0	0	0	516	
12	0	0	0	0	508	
13	0	0	0	0	499	
14	0	0	0	0	521	
15	0	0	0	0	511	
0	0	0	0	0	508	
1	0	0	0	0	487	
2	0	0	0	0	517	
3	0	0	0	0	531	
4	0	0	0	0	510	
5	0	0	0	0	540	
6	0	0	0	0	499	
7	0	0	0	0	505	
8	0	0	0	0	510	
9	0	0	0	0	534	
10	0	0	0	0	499	
11	0	0	0	0	532	
12	0	0	0	0	457	
13	0	0	0	0	481	
14	0	0	0	0	529	
15	0	0	0	0	490	
0	0	0	0	0	500	
1	0	0	0	0	542	
2	0	0	0	0	491	
3	0	0	0	0	505	
4	0	0	0	0	519	
5	0	0	0	0	516	
6	0	0	0	0	499	
7	0	0	0	0	499	
8	0	0	0	0	511	
9	0	0	0	0	504	
10	0	0	0	0	515	
11	0	0	0	0	514	
12	0	0	0	0	499	
13	0	0	0	0	504	
14	0	0	0	0	483	
15	0	0	0	0	502	
0	0	0	0	0	505	
1	0	0	0	0	515	
2	0	0	0	0	504	
3	0	0	0	0	515	
4	0	0	0	0	517	
5	0	0	0	0	513	
6	0	0	0	0	507	
7	0	0	0	0	500	
8	0	0	0	0	509	
9	0	0	0	0	509	
10	0	0	0	0	504	
11	0	0	0	0	527	
12	0	0	0	0	508	
13	0	0	0	0	512	
14	0	0	0	0	529	
15	0	0	0	0	515	
0	0	0	0	0	504	
1	0	0	0	0	498	
2	0	0	0	0	499	
3	0	0	0	0	504	
4	0	0	0	0	515	
5	0	0	0	0	469	
6	0	0	0	0	519	
7	0	0	0	0	557	
8	0	0	0	0	505	
9	0	0	0	0	450	
10	0	0	0	0	558	
11	0	0	0	0	529	
12	0	0	0	0	508	
13	0	0	0	0	510	
14	0	0	0	0	500	
15	0	0	0	0	487	
0	0	0	0	0	499	
1	0	0	0	0	503	
2	0	0	0	0	508	
3	0	0	0	0	519	
4	0	0	0	0	520	
5	0	0	0	0	510	
6	0	0	0	0	505	
7	0	0	0	0	508	
8	0	0	0	0	506	
9	0	0	0	0	515	
10	0	0	0	0	500	
11	0	0	0	0	510	
12	0	0	0	0	506	
13	0	0	0	0	510	
14	0	0	0	0	508	
15	0	0	0	0	500	
0	0	0	0	0	510	
1	0	0	0	0	514	
2	0	0	0	0	515	
3	0	0	0	0	517	
4	0	0	0	0	503	
5	0	0	0	0	508	
6	0	0	0	0	512	
7	0	0	0	0	495	
8	0	0	0	0	507	
9	0	0	0	0	511	
10	0	0	0	0	506	
11	0	0	0	0	507	
12	0	0	0	0	512	
13	0	0	0	0	512	
14	0	0	0	0	509	
15	0	0	0	0	514	
0	0	0	0	0	504	
1	0	0	0	0	510	
2	0	0	0	0	508	
3	0	0	0	0	506	
4	0	0	0	0	515	
5	0	0	0	0	507	
6	0	0	0	0	512	
7	0	0	0	0	510	
8	0	0	0	0	496	
9	0	0	0	0	516	
10	0	0	0	0	505	
11	0	0	0	0	513	
12	0	0	0	0	505	
13	0	0	0	0	509	
14	0	0	0	0	507	
15	0	0	0	0	514	
0	0	0	0	0	518	
1	0	0	0	0	503	
2	0	0	0	0	510	
3	0	0	0	0	510	
4	0	0	0	0	462	
5	0	0	0	0	568	
6	0	0	0	0	549	
7	0	0	0	0	491	
8	0	0	0	0	452	
9	0	0	0	0	548	
10	0	0	0	0	514	
11	0	0	0	0	501	
12	0	0	0	0	501	
13	0	0	0	0	508	
14	0	0	0	0	513	
15	0	0	0	0	510	
0	0	0	0	0	504	
1	0	0	0	0	505	
2	0	0	0	0	511	
3	0	0	0	0	509	
4	0	0	0	0	507	
5	0	0	0	0	508	
6	0	0	0	0	506	
7	0	0	0	0	512	
8	0	0	0	0	508	
9	0	0	0	0	516	
10	0	0	0	0	510	
11	0	0	0	0	505	
12	0	0	0	0	516	
13	0	0	0	0	510	
14	0	0	0	0	508	
15	0	0	0	0	510	
0	0	0	0	0	514	
1	0	0	0	0	512	
2	0	0	0	0	508	
3	0	0	0	0	508	
4	0	0	0	0	507	
5	0	0	0	0	508	
6	0	0	0	0	515	
7	0	0	0	0	507	
8	0	0	0	0	510	
9	0	0	0	0	517	
10	0	0	0	0	504	
11	0	0	0	0	518	
12	0	0	0	0	504	
13	0	0	0	0	519	
14	0	0	0	0	515	
15	0	0	0	0	513	
0	0	0	0	0	522	
1	0	0	0	0	498	
2	0	0	0	0	506	
3	0	0	0	0	504	
4	0	0	0	0	508	
5	0	0	0	0	516	
6	0	0	0	0	504	
7	0	0	0	0	509	
8	0	0	0	0	511	
9	0	0	0	0	514	
10	0	0	0	0	504	
11	0	0	0	0	499	
12	0	0	0	0	508	
13	0	0	0	0	512	
14	0	0	0	0	507	
15	0	0	0	0	510	
0	0	0	0	0	503	
1	0	0	0	0	508	
2	0	0	0	0	507	
3	0	0	0	0	499	
4	0	0	0	0	486	
5	0	0	0	0	572	
6	0	0	0	0	525	
7	0	0	0	0	441	
8	0	0	0	0	559	
9	0	0	0	0	545	
10	0	0	0	0	498	
11	0	0	0	0	507	
12	0	0	0	0	511	
13	0	0	0	0	513	
14	0	0	0	0	510	
15	0	0	0	0	508	
0	0	0	0	0	505	
1	0	0	0	0	508	
2	0	0	0	0	504	
3	0	0	0	0	507	
4	0	0	0	0	508	
5	0	0	0	0	510	
6	0	0	0	0	510	
7	0	0	0	0	511	
8	0	0	0	0	507	
9	0	0	0	0	509	
10	0	0	0	0	510	
11	0	0	0	0	509	
12	0	0	0	0	510	
13	0	0	0	0	512	
14	0	0	0	0	508	
15	0	0	0	0	512	
0	0	0	0	0	511	
1	0	0	0	0	509	
2	0	0	0	0	511	
3	0	0	0	0	517	
4	0	0	0	0	505	
5	0	0	0	0	507	
6	0	0	0	0	508	
7	0	0	0	0	508	
8	0	0	0	0	508	
9	0	0	0	0	508	
10	0	0	0	0	510	
11	0	0	0	0	514	
12	0	0	0	0	507	
13	0	0	0	0	508	
14	0	0	0	0	508	
15	0	0	0	0	508	
0	0	0	0	0	508	
1	0	0	0	0	508	
2	0	0	0	0	515	
3	0	0	0	0	509	
4	0	0	0	0	511	
5	0	0	0	0	510	
6	0	0	0	0	507	
7	0	0	0	0	512	
8	0	0	0	0	515	
9	0	0	0	0	512	
10	0	0	0	0	508	
11	0	0	0	0	510	
12	0	0	0	0	510	
13	0	0	0	0	508	
14	0	0	0	0	508	
15	0	0	0	0	510	
0	0	0	0	0	508	
1	0	0	0	0	510	
2	0	0	0	0	516	
3	0	0	0	0	489	
4	0	0	0	0	464	
5	0	0	0	0	591	
6	0	0	0	0	527	
7	0	0	0	0	428	
8	0	0	0	0	539	
9	0	0	0	0	544	
10	0	0	0	0	499	
11	0	0	0	0	510	
12	0	0	0	0	509	
13	0	0	0	0	509	
14	0	0	0	0	512	
15	0	0	0	0	512	
0	0	0	0	0	503	
1	0	0	0	0	505	
2	0	0	0	0	511	
3	0	0	0	0	508	
4	0	0	0	0	508	
5	0	0	0	0	508	
6	0	0	0	0	515	
7	0	0	0	0	511	
8	0	0	0	0	505	
9	0	0	0	0	508	
10	0	0	0	0	507	
11	0	0	0	0	508	
12	0	0	0	0	507	
13	0	0	0	0	515	
14	0	0	0	0	514	
15	0	0	0	0	509	
0	0	0	0	0	511	
1	0	0	0	0	507	
2	0	0	0	0	512	
3	0	0	0	0	504	
4	0	0	0	0	510	
5	0	0	0	0	508	
6	0	0	0	0	510	
7	0	0	0	0	504	
8	0	0	0	0	513	
9	0	0	0	0	511	
10	0	0	0	0	511	
11	0	0	0	0	504	
12	0	0	0	0	503	
13	0	0	0	0	508	
14	0	0	0	0	511	
15	0	0	0	0	508	
0	0	0	0	0	509	
1	0	0	0	0	511	
2	0	0	0	0	510	
3	0	0	0	0	512	
4	0	0	0	0	506	
5	0	0	0	0	509	
6	0	0	0	0	506	
7	0	0	0	0	510	
8	0	0	0	0	511	
9	0	0	0	0	510	
10	0	0	0	0	507	
11	0	0	0	0	508	
12	0	0	0	0	505	
13	0	0	0	0	510	
14	0	0	0	0	514	
15	0	0	0	0	505	
0	0	0	0	0	507	
1	0	0	0	0	510	
2	0	0	0	0	512	
3	0	0	0	0	509	
4	0	0	0	0	490	
5	0	0	0	0	476	
6	0	0	0	0	589	
7	0	0	0	0	514	
8	0	0	0	0	428	
9	0	0	0	0	544	
10	0	0	0	0	524	
11	0	0	0	0	505	
12	0	0	0	0	509	
13	0	0	0	0	511	
14	0	0	0	0	506	
15	0	0	0	0	511	
0	0	0	0	0	508	
1	0	0	0	0	510	
2	0	0	0	0	509	
3	0	0	0	0	507	
4	0	0	0	0	512	
5	0	0	0	0	510	
6	0	0	0	0	508	
7	0	0	0	0	511	
8	0	0	0	0	503	
9	0	0	0	0	508	
10	0	0	0	0	511	
11	0	0	0	0	510	
12	0	0	0	0	511	
13	0	0	0	0	509	
14	0	0	0	0	510	
15	0	0	0	0	509	
0	0	0	0	0	511	
1	0	0	0	0	510	
2	0	0	0	0	511	
3	0	0	0	0	510	
4	0	0	0	0	508	
5	0	0	0	0	507	
6	0	0	0	0	508	
7	0	0	0	0	509	
8	0	0	0	0	508	
9	0	0	0	0	509	
10	0	0	0	0	511	
11	0	0	0	0	506	
12	0	0	0	0	507	
13	0	0	0	0	507	
14	0	0	0	0	509	
15	0	0	0	0	510	
0	0	0	0	0	508	
1	0	0	0	0	508	
2	0	0	0	0	508	
3	0	0	0	0	505	
4	0	0	0	0	508	
5	0	0	0	0	509	
6	0	0	0	0	506	
7	0	0	0	0	504	
8	0	0	0	0	511	
9	0	0	0	0	511	
10	0	0	0	0	507	
11	0	0	0	0	507	
12	0	0	0	0	510	
13	0	0	0	0	510	
14	0	0	0	0	512	
15	0	0	0	0	508	
0	0	0	0	0	511	
1	0	0	0	0	512	
2	0	0	0	0	513	
3	0	0	0	0	511	
4	0	0	0	0	511	
5	0	0	0	0	467	
6	0	0	0	0	535	
7	0	0	0	0	582	
8	0	0	0	0	483	
9	0	0	0	0	447	
10	0	0	0	0	527	
11	0	0	0	0	515	
12	0	0	0	0	512	
13	0	0	0	0	506	
14	0	0	0	0	503	
15	0	0	0	0	506	
0	0	0	0	0	519	
1	0	0	0	0	509	
2	0	0	0	0	511	
3	0	0	0	0	512	
4	0	0	0	0	508	
5	0	0	0	0	504	
6	0	0	0	0	503	
7	0	0	0	0	515	
8	0	0	0	0	512	
9	0	0	0	0	503	
10	0	0	0	0	509	
11	0	0	0	0	500	
12	0	0	0	0	525	
13	0	0	0	0	513	
14	0	0	0	0	505	
15	0	0	0	0	495	
0	0	0	0	0	520	
1	0	0	0	0	510	
2	0	0	0	0	503	
3	0	0	0	0	525	
4	0	0	0	0	498	
5	0	0	0	0	500	
6	0	0	0	0	497	
7	0	0	0	0	521	
8	0	0	0	0	511	
9	0	0	0	0	515	
10	0	0	0	0	489	
11	0	0	0	0	518	
12	0	0	0	0	517	
13	0	0	0	0	531	
14	0	0	0	0	525	
15	0	0	0	0	489	
0	0	0	0	0	484	
1	0	0	0	0	512	
2	0	0	0	0	518	
3	0	0	0	0	515	
4	0	0	0	0	500	
5	0	0	0	0	507	
6	0	0	0	0	515	
7	0	0	0	0	487	
8	0	0	0	0	523	
9	0	0	0	0	527	
10	0	0	0	0	528	
11	0	0	0	0	491	
12	0	0	0	0	497	
13	0	0	0	0	487	
14	0	0	0	0	526	
15	0	0	0	0	520	
0	0	0	0	0	515	
1	0	0	0	0	504	
2	0	0	0	0	501	
3	0	0	0	0	513	
4	0	0	0	0	514	
5	0	0	0	0	506	
6	0	0	0	0	434	
7	0	0	0	0	591	
8	0	0	0	0	560	
9	0	0	0	0	452	
10	0	0	0	0	494	
11	0	0	0	0	537	
12	0	0	0	0	511	
13	0	0	0	0	504	
14	0	0	0	0	496	
15	0	0	0	0	496	
0	0	0	0	0	515	
1	0	0	0	0	520	
2	0	0	0	0	520	
3	0	0	0	0	504	
4	0	0	0	0	509	
5	0	0	0	0	515	
6	0	0	0	0	502	
7	0	0	0	0	519	
8	0	0	0	0	519	
9	0	0	0	0	509	
10	0	0	0	0	496	
11	0	0	0	0	498	
12	0	0	0	0	507	
13	0	0	0	0	511	
14	0	0	0	0	516	
15	0	0	0	0	517	
0	0	0	0	0	506	
1	0	0	0	0	509	
2	0	0	0	0	494	
3	0	0	0	0	516	
4	0	0	0	0	517	
5	0	0	0	0	513	
6	0	0	0	0	500	
7	0	0	0	0	497	
8	0	0	0	0	493	
9	0	0	0	0	536	
10	0	0	0	0	519	
11	0	0	0	0	489	
12	0	0	0	0	499	
13	0	0	0	0	513	
14	0	0	0	0	514	
15	0	0	0	0	511	
0	0	0	0	0	504	
1	0	0	0	0	509	
2	0	0	0	0	509	
3	0	0	0	0	507	
4	0	0	0	0	512	
5	0	0	0	0	511	
6	0	0	0	0	509	
7	0	0	0	0	503	
8	0	0	0	0	516	
9	0	0	0	0	507	
10	0	0	0	0	508	
11	0	0	0	0	505	
12	0	0	0	0	512	
13	0	0	0	0	513	
14	0	0	0	0	511	
15	0	0	0	0	511	
0	0	0	0	0	507	
1	0	0	0	0	514	
2	0	0	0	0	505	
3	0	0	0	0	504	
4	0	0	0	0	509	
5	0	0	0	0	513	
6	0	0	0	0	499	
7	0	0	0	0	453	
8	0	0	0	0	588	
9	0	0	0	0	521	
10	0	0	0	0	437	
11	0	0	0	0	532	
12	0	0	0	0	523	
13	0	0	0	0	510	
14	0	0	0	0	509	
15	0	0	0	0	510	
0	0	0	0	0	508	
1	0	0	0	0	512	
2	0	0	0	0	513	
3	0	0	0	0	510	
4	0	0	0	0	509	
5	0	0	0	0	510	
6	0	0	0	0	507	
7	0	0	0	0	511	
8	0	0	0	0	502	
9	0	0	0	0	504	
10	0	0	0	0	512	
11	0	0	0	0	501	
12	0	0	0	0	512	
13	0	0	0	0	510	
14	0	0	0	0	512	
15	0	0	0	0	509	
0	0	0	0	0	504	
1	0	0	0	0	510	
2	0	0	0	0	509	
3	0	0	0	0	512	
4	0	0	0	0	509	
5	0	0	0	0	512	
6	0	0	0	0	511	
7	0	0	0	0	510	
8	0	0	0	0	507	
9	0	0	0	0	503	
10	0	0	0	0	507	
11	0	0	0	0	507	
12	0	0	0	0	506	
13	0	0	0	0	515	
14	0	0	0	0	506	
15	0	0	0	0	505	
0	0	0	0	0	511	
1	0	0	0	0	513	
2	0	0	0	0	503	
3	0	0	0	0	511	
4	0	0	0	0	510	
5	0	0	0	0	517	
6	0	0	0	0	518	
7	0	0	0	0	499	
8	0	0	0	0	504	
9	0	0	0	0	502	
10	0	0	0	0	518	
11	0	0	0	0	515	
12	0	0	0	0	507	
13	0	0	0	0	511	
14	0	0	0	0	509	
15	0	0	0	0	507	
0	0	0	0	0	512	
1	0	0	0	0	502	
2	0	0	0	0	509	
3	0	0	0	0	510	
4	0	0	0	0	504	
5	0	0	0	0	501	
6	0	0	0	0	516	
7	0	0	0	0	434	
8	0	0	0	0	586	
9	0	0	0	0	579	
10	0	0	0	0	426	
11	0	0	0	0	501	
12	0	0	0	0	526	
13	0	0	0	0	509	
14	0	0	0	0	508	
15	0	0	0	0	508	
0	0	0	0	0	508	
1	0	0	0	0	512	
2	0	0	0	0	510	
3	0	0	0	0	509	
4	0	0	0	0	507	
5	0	0	0	0	510	
6	0	0	0	0	509	
7	0	0	0	0	512	
8	0	0	0	0	513	
9	0	0	0	0	509	
10	0	0	0	0	510	
11	0	0	0	0	511	
12	0	0	0	0	509	
13	0	0	0	0	504	
14	0	0	0	0	509	
15	0	0	0	0	528	
0	0	0	0	0	542	
1	0	0	0	0	516	
2	0	0	0	0	486	
3	0	0	0	0	502	
4	0	0	0	0	517	
5	0	0	0	0	512	
6	0	0	0	0	506	
7	0	0	0	0	505	
8	0	0	0	0	506	
9	0	0	0	0	1022	
10	0	0	0	0	0	
11	0	0	0	0	66	
12	0	0	0	0	423	
13	0	0	0	0	492	
14	0	0	0	0	507	
15	0	0	0	0	508	
0	0	0	0	0	511	
1	0	0	0	0	512	
2	0	0	0	0	508	
3	0	0	0	0	508	
4	0	0	0	0	508	
5	0	0	0	0	508	
6	0	0	0	0	509	
7	0	0	0	0	512	
8	0	0	0	0	509	
9	0	0	0	0	510	
10	0	0	0	0	509	
11	0	0	0	0	1022	
12	0	0	0	0	0	
13	0	0	0	0	340	
14	0	0	0	0	478	
15	0	0	0	0	493	
0	0	0	0	0	508	
1	0	0	0	0	503	
2	0	0	0	0	508	
3	0	0	0	0	508	
4	0	0	0	0	508	
5	0	0	0	0	509	
6	0	0	0	0	509	
7	0	0	0	0	509	
8	0	0	0	0	510	
9	0	0	0	0	508	
10	0	0	0	0	510	
11	0	0	0	0	510	
12	0	0	0	0	509	
13	0	0	0	0	511	
14	0	0	0	0	509	
15	0	0	0	0	492	
0	0	0	0	0	502	
1	0	0	0	0	509	
2	0	0	0	0	509	
3	0	0	0	0	506	
4	0	0	0	0	505	
5	0	0	0	0	504	
6	0	0	0	0	508	
7	0	0	0	0	512	
8	0	0	0	0	498	
9	0	0	0	0	507	
10	0	0	0	0	511	
11	0	0	0	0	509	
12	0	0	0	0	515	
13	0	0	0	0	509	
14	0	0	0	0	512	
15	0	0	0	0	506	
0	0	0	0	0	513	
1	0	0	0	0	509	
2	0	0	0	0	512	
3	0	0	0	0	513	
4	0	0	0	0	514	
5	0	0	0	0	511	
6	0	0	0	0	508	
7	0	0	0	0	507	
8	0	0	0	0	508	
9	0	0	0	0	515	
10	0	0	0	0	512	
11	0	0	0	0	508	
12	0	0	0	0	508	
13	0	0	0	0	504	
14	0	0	0	0	506	
15	0	0	0	0	510	
0	0	0	0	0	506	
1	0	0	0	0	508	
2	0	0	0	0	509	
3	0	0	0	0	508	
4	0	0	0	0	511	
5	0	0	0	0	504	
6	0	0	0	0	509	
7	0	0	0	0	512	
8	0	0	0	0	511	
9	0	0	0	0	507	
10	0	0	0	0	512	
11	0	0	0	0	510	
12	0	0	0	0	507	
13	0	0	0	0	507	
14	0	0	0	0	510	
15	0	0	0	0	515	
0	0	0	0	0	500	
1	0	0	0	0	510	
2	0	0	0	0	511	
3	0	0	0	0	512	
4	0	0	0	0	510	
5	0	0	0	0	514	
6	0	0	0	0	507	
7	0	0	0	0	432	
8	0	0	0	0	600	
9	0	0	0	0	575	
10	0	0	0	0	422	
11	0	0	0	0	510	
12	0	0	0	0	529	
13	0	0	0	0	513	
14	0	0	0	0	510	
15	0	0	0	0	506	
0	0	0	0	0	508	
1	0	0	0	0	507	
2	0	0	0	0	512	
3	0	0	0	0	509	
4	0	0	0	0	510	
5	0	0	0	0	507	
6	0	0	0	0	505	
7	0	0	0	0	510	
8	0	0	0	0	507	
9	0	0	0	0	512	
10	0	0	0	0	509	
11	0	0	0	0	510	
12	0	0	0	0	510	
13	0	0	0	0	504	
14	0	0	0	0	510	
15	0	0	0	0	515	
0	0	0	0	0	511	
1	0	0	0	0	513	
2	0	0	0	0	511	
3	0	0	0	0	508	
4	0	0	0	0	508	
5	0	0	0	0	510	
6	0	0	0	0	513	
7	0	0	0	0	511	
8	0	0	0	0	503	
9	0	0	0	0	510	
10	0	0	0	0	509	
11	0	0	0	0	508	
12	0	0	0	0	510	
13	0	0	0	0	507	
14	0	0	0	0	511	
15	0	0	0	0	511	
0	0	0	0	0	510	
1	0	0	0	0	510	
2	0	0	0	0	510	
3	0	0	0	0	508	
4	0	0	0	0	506	
5	0	0	0	0	512	
6	0	0	0	0	511	
7	0	0	0	0	508	
8	0	0	0	0	510	
9	0	0	0	0	508	
10	0	0	0	0	516	
11	0	0	0	0	515	
12	0	0	0	0	509	
13	0	0	0	0	506	
14	0	0	0	0	512	
15	0	0	0	0	508	
0	0	0	0	0	509	
1	0	0	0	0	508	
2	0	0	0	0	508	
3	0	0	0	0	513	
4	0	0	0	0	506	
5	0	0	0	0	515	
6	0	0	0	0	488	
7	0	0	0	0	458	
8	0	0	0	0	604	
9	0	0	0	0	553	
10	0	0	0	0	436	
11	0	0	0	0	509	
12	0	0	0	0	528	
13	0	0	0	0	506	
14	0	0	0	0	504	
15	0	0	0	0	510	
0	0	0	0	0	510	
1	0	0	0	0	512	
2	0	0	0	0	508	
3	0	0	0	0	507	
4	0	0	0	0	503	
5	0	0	0	0	510	
6	0	0	0	0	511	
7	0	0	0	0	505	
8	0	0	0	0	508	
9	0	0	0	0	508	
10	0	0	0	0	515	
11	0	0	0	0	499	
12	0	0	0	0	511	
13	0	0	0	0	507	
14	0	0	0	0	508	
15	0	0	0	0	508	
0	0	0	0	0	514	
1	0	0	0	0	509	
2	0	0	0	0	511	
3	0	0	0	0	512	
4	0	0	0	0	506	
5	0	0	0	0	508	
6	0	0	0	0	516	
7	0	0	0	0	513	
8	0	0	0	0	508	
9	0	0	0	0	505	
10	0	0	0	0	513	
11	0	0	0	0	510	
12	0	0	0	0	510	
13	0	0	0	0	512	
14	0	0	0	0	508	
15	0	0	0	0	505	
0	0	0	0	0	507	
1	0	0	0	0	512	
2	0	0	0	0	515	
3	0	0	0	0	512	
4	0	0	0	0	512	
5	0	0	0	0	507	
6	0	0	0	0	512	
7	0	0	0	0	508	
8	0	0	0	0	506	
9	0	0	0	0	509	
10	0	0	0	0	512	
11	0	0	0	0	511	
12	0	0	0	0	511	
13	0	0	0	0	510	
14	0	0	0	0	508	
15	0	0	0	0	512	
0	0	0	0	0	512	
1	0	0	0	0	506	
2	0	0	0	0	509	
3	0	0	0	0	504	
4	0	0	0	0	504	
5	0	0	0	0	503	
6	0	0	0	0	458	
7	0	0	0	0	581	
8	0	0	0	0	549	
9	0	0	0	0	475	
10	0	0	0	0	499	
11	0	0	0	0	527	
12	0	0	0	0	503	
13	0	0	0	0	504	
14	0	0	0	0	515	
15	0	0	0	0	511	
0	0	0	0	0	505	
1	0	0	0	0	507	
2	0	0	0	0	512	
3	0	0	0	0	504	
4	0	0	0	0	507	
5	0	0	0	0	512	
6	0	0	0	0	508	
7	0	0	0	0	510	
8	0	0	0	0	507	
9	0	0	0	0	511	
10	0	0	0	0	511	
11	0	0	0	0	508	
12	0	0	0	0	509	
13	0	0	0	0	506	
14	0	0	0	0	510	
15	0	0	0	0	508	
0	0	0	0	0	513	
1	0	0	0	0	510	
2	0	0	0	0	513	
3	0	0	0	0	508	
4	0	0	0	0	502	
5	0	0	0	0	508	
6	0	0	0	0	509	
7	0	0	0	0	506	
8	0	0	0	0	514	
9	0	0	0	0	503	
10	0	0	0	0	504	
11	0	0	0	0	512	
12	0	0	0	0	509	
13	0	0	0	0	504	
14	0	0	0	0	512	
15	0	0	0	0	514	
0	0	0	0	0	511	
1	0	0	0	0	508	
2	0	0	0	0	513	
3	0	0	0	0	510	
4	0	0	0	0	504	
5	0	0	0	0	510	
6	0	0	0	0	510	
7	0	0	0	0	509	
8	0	0	0	0	517	
9	0	0	0	0	506	
10	0	0	0	0	502	
11	0	0	0	0	512	
12	0	0	0	0	516	
13	0	0	0	0	508	
14	0	0	0	0	503	
15	0	0	0	0	510	
0	0	0	0	0	516	
1	0	0	0	0	512	
2	0	0	0	0	505	
3	0	0	0	0	504	
4	0	0	0	0	476	
5	0	0	0	0	536	
6	0	0	0	0	568	
7	0	0	0	0	486	
8	0	0	0	0	468	
9	0	0	0	0	519	
10	0	0	0	0	507	
11	0	0	0	0	507	
12	0	0	0	0	510	
13	0	0	0	0	512	
14	0	0	0	0	508	
15	0	0	0	0	511	
0	0	0	0	0	502	
1	0	0	0	0	509	
2	0	0	0	0	504	
3	0	0	0	0	512	
4	0	0	0	0	508	
5	0	0	0	0	508	
6	0	0	0	0	511	
7	0	0	0	0	508	
8	0	0	0	0	509	
9	0	0	0	0	509	
10	0	0	0	0	508	
11	0	0	0	0	511	
12	0	0	0	0	512	
13	0	0	0	0	509	
14	0	0	0	0	511	
15	0	0	0	0	511	
0	0	0	0	0	508	
1	0	0	0	0	512	
2	0	0	0	0	508	
3	0	0	0	0	507	
4	0	0	0	0	506	
5	0	0	0	0	508	
6	0	0	0	0	507	
7	0	0	0	0	510	
8	0	0	0	0	507	
9	0	0	0	0	508	
10	0	0	0	0	511	
11	0	0	0	0	511	
12	0	0	0	0	505	
13	0	0	0	0	508	
14	0	0	0	0	510	
15	0	0	0	0	508	
0	0	0	0	0	507	
1	0	0	0	0	507	
2	0	0	0	0	505	
3	0	0	0	0	512	
4	0	0	0	0	507	
5	0	0	0	0	512	
6	0	0	0	0	512	
7	0	0	0	0	508	
8	0	0	0	0	508	
9	0	0	0	0	511	
10	0	0	0	0	505	
11	0	0	0	0	503	
12	0	0	0	0	509	
13	0	0	0	0	511	
14	0	0	0	0	508	
15	0	0	0	0	510	
0	0	0	0	0	515	
1	0	0	0	0	508	
2	0	0	0	0	445	
3	0	0	0	0	579	
4	0	0	0	0	557	
5	0	0	0	0	457	
6	0	0	0	0	505	
7	0	0	0	0	524	
8	0	0	0	0	509	
9	0	0	0	0	507	
10	0	0	0	0	508	
11	0	0	0	0	515	
12	0	0	0	0	513	
13	0	0	0	0	511	
14	0	0	0	0	503	
15	0	0	0	0	503	
0	0	0	0	0	506	
1	0	0	0	0	507	
2	0	0	0	0	510	
3	0	0	0	0	509	
4	0	0	0	0	507	
5	0	0	0	0	509	
6	0	0	0	0	507	
7	0	0	0	0	508	
8	0	0	0	0	508	
9	0	0	0	0	509	
10	0	0	0	0	517	
11	0	0	0	0	505	
12	0	0	0	0	511	
13	0	0	0	0	510	
14	0	0	0	0	508	
15	0	0	0	0	511	
0	0	0	0	0	506	
1	0	0	0	0	510	
2	0	0	0	0	505	
3	0	0	0	0	508	
4	0	0	0	0	512	
5	0	0	0	0	506	
6	0	0	0	0	509	
7	0	0	0	0	510	
8	0	0	0	0	507	
9	0	0	0	0	509	
10	0	0	0	0	509	
11	0	0	0	0	506	
12	0	0	0	0	510	
13	0	0	0	0	508	
14	0	0	0	0	507	
15	0	0	0	0	512	
0	0	0	0	0	507	
1	0	0	0	0	500	
2	0	0	0	0	507	
3	0	0	0	0	511	
4	0	0	0	0	511	
5	0	0	0	0	507	
6	0	0	0	0	511	
7	0	0	0	0	508	
8	0	0	0	0	508	
9	0	0	0	0	508	
10	0	0	0	0	508	
11	0	0	0	0	509	
12	0	0	0	0	510	
13	0	0	0	0	512	
14	0	0	0	0	513	
15	0	0	0	0	450	
0	0	0	0	0	571	
1	0	0	0	0	572	
2	0	0	0	0	463	
3	0	0	0	0	464	
4	0	0	0	0	534	
5	0	0	0	0	508	
6	0	0	0	0	508	
7	0	0	0	0	506	
8	0	0	0	0	509	
9	0	0	0	0	515	
10	0	0	0	0	514	
11	0	0	0	0	513	
12	0	0	0	0	507	
13	0	0	0	0	510	
14	0	0	0	0	512	
15	0	0	0	0	506	
0	0	0	0	0	512	
1	0	0	0	0	503	
2	0	0	0	0	509	
3	0	0	0	0	508	
4	0	0	0	0	505	
5	0	0	0	0	507	
6	0	0	0	0	510	
7	0	0	0	0	508	
8	0	0	0	0	511	
9	0	0	0	0	511	
10	0	0	0	0	510	
11	0	0	0	0	513	
12	0	0	0	0	515	
13	0	0	0	0	510	
14	0	0	0	0	510	
15	0	0	0	0	506	
0	0	0	0	0	508	
1	0	0	0	0	507	
2	0	0	0	0	507	
3	0	0	0	0	509	
4	0	0	0	0	507	
5	0	0	0	0	507	
6	0	0	0	0	510	
7	0	0	0	0	509	
8	0	0	0	0	511	
9	0	0	0	0	510	
10	0	0	0	0	508	
11	0	0	0	0	512	
12	0	0	0	0	510	
13	0	0	0	0	508	
14	0	0	0	0	505	
15	0	0	0	0	512	
0	0	0	0	0	512	
1	0	0	0	0	512	
2	0	0	0	0	509	
3	0	0	0	0	508	
4	0	0	0	0	510	
5	0	0	0	0	510	
6	0	0	0	0	509	
7	0	0	0	0	512	
8	0	0	0	0	506	
9	0	0	0	0	508	
10	0	0	0	0	510	
11	0	0	0	0	489	
12	0	0	0	0	464	
13	0	0	0	0	597	
14	0	0	0	0	527	
15	0	0	0	0	417	
0	0	0	0	0	536	
1	0	0	0	0	526	
2	0	0	0	0	508	
3	0	0	0	0	502	
4	0	0	0	0	508	
5	0	0	0	0	513	
6	0	0	0	0	510	
7	0	0	0	0	508	
8	0	0	0	0	509	
9	0	0	0	0	511	
10	0	0	0	0	512	
11	0	0	0	0	509	
12	0	0	0	0	507	
13	0	0	0	0	508	
14	0	0	0	0	505	
15	0	0	0	0	510	
0	0	0	0	0	511	
1	0	0	0	0	521	
2	0	0	0	0	507	
3	0	0	0	0	510	
4	0	0	0	0	511	
5	0	0	0	0	512	
6	0	0	0	0	506	
7	0	0	0	0	512	
8	0	0	0	0	509	
9	0	0	0	0	509	
10	0	0	0	0	511	
11	0	0	0	0	503	
12	0	0	0	0	504	
13	0	0	0	0	506	
14	0	0	0	0	508	
15	0	0	0	0	505	
0	0	0	0	0	507	
1	0	0	0	0	511	
2	0	0	0	0	507	
3	0	0	0	0	507	
4	0	0	0	0	515	
5	0	0	0	0	508	
6	0	0	0	0	505	
7	0	0	0	0	510	
8	0	0	0	0	516	
9	0	0	0	0	509	
10	0	0	0	0	510	
11	0	0	0	0	512	
12	0	0	0	0	511	
13	0	0	0	0	510	
14	0	0	0	0	509	
15	0	0	0	0	512	
0	0	0	0	0	502	
1	0	0	0	0	513	
2	0	0	0	0	513	
3	0	0	0	0	510	
4	0	0	0	0	511	
5	0	0	0	0	509	
6	0	0	0	0	516	
7	0	0	0	0	480	
8	0	0	0	0	477	
9	0	0	0	0	599	
10	0	0	0	0	510	
11	0	0	0	0	403	
12	0	0	0	0	539	
13	0	0	0	0	512	
14	0	0	0	0	505	
15	0	0	0	0	502	
0	0	0	0	0	506	
1	0	0	0	0	512	
2	0	0	0	0	509	
3	0	0	0	0	510	
4	0	0	0	0	510	
5	0	0	0	0	509	
6	0	0	0	0	510	
7	0	0	0	0	511	
8	0	0	0	0	509	
9	0	0	0	0	510	
10	0	0	0	0	510	
11	0	0	0	0	507	
12	0	0	0	0	505	
13	0	0	0	0	508	
14	0	0	0	0	508	
15	0	0	0	0	507	
0	0	0	0	0	508	
1	0	0	0	0	512	
2	0	0	0	0	511	
3	0	0	0	0	509	
4	0	0	0	0	510	
5	0	0	0	0	512	
6	0	0	0	0	507	
7	0	0	0	0	510	
8	0	0	0	0	505	
9	0	0	0	0	507	
10	0	0	0	0	508	
11	0	0	0	0	509	
12	0	0	0	0	509	
13	0	0	0	0	509	
14	0	0	0	0	510	
15	0	0	0	0	512	
0	0	0	0	0	512	
1	0	0	0	0	511	
2	0	0	0	0	511	
3	0	0	0	0	510	
4	0	0	0	0	513	
5	0	0	0	0	508	
6	0	0	0	0	512	
7	0	0	0	0	510	
8	0	0	0	0	512	
9	0	0	0	0	513	
10	0	0	0	0	511	
11	0	0	0	0	512	
12	0	0	0	0	509	
13	0	0	0	0	509	
14	0	0	0	0	510	
15	0	0	0	0	508	
0	0	0	0	0	507	
1	0	0	0	0	508	
2	0	0	0	0	509	
3	0	0	0	0	510	
4	0	0	0	0	511	
5	0	0	0	0	454	
6	0	0	0	0	551	
7	0	0	0	0	593	
8	0	0	0	0	478	
9	0	0	0	0	445	
10	0	0	0	0	536	
11	0	0	0	0	510	
12	0	0	0	0	506	
13	0	0	0	0	507	
14	0	0	0	0	511	
15	0	0	0	0	512	
0	0	0	0	0	508	
1	0	0	0	0	507	
2	0	0	0	0	510	
3	0	0	0	0	508	
4	0	0	0	0	510	
5	0	0	0	0	509	
6	0	0	0	0	512	
7	0	0	0	0	508	
8	0	0	0	0	508	
9	0	0	0	0	510	
10	0	0	0	0	510	
11	0	0	0	0	508	
12	0	0	0	0	508	
13	0	0	0	0	509	
14	0	0	0	0	513	
15	0	0	0	0	510	
0	0	0	0	0	511	
1	0	0	0	0	514	
2	0	0	0	0	509	
3	0	0	0	0	508	
4	0	0	0	0	507	
5	0	0	0	0	511	
6	0	0	0	0	506	
7	0	0	0	0	503	
8	0	0	0	0	508	
9	0	0	0	0	506	
10	0	0	0	0	509	
11	0	0	0	0	507	
12	0	0	0	0	508	
13	0	0	0	0	509	
14	0	0	0	0	510	
15	0	0	0	0	510	
0	0	0	0	0	506	
1	0	0	0	0	511	
2	0	0	0	0	510	
3	0	0	0	0	508	
4	0	0	0	0	507	
5	0	0	0	0	510	
6	0	0	0	0	508	
7	0	0	0	0	511	
8	0	0	0	0	506	
9	0	0	0	0	508	
10	0	0	0	0	513	
11	0	0	0	0	511	
12	0	0	0	0	505	
13	0	0	0	0	505	
14	0	0	0	0	507	
15	0	0	0	0	508	
0	0	0	0	0	509	
1	0	0	0	0	509	
2	0	0	0	0	507	
3	0	0	0	0	509	
4	0	0	0	0	510	
5	0	0	0	0	511	
6	0	0	0	0	460	
7	0	0	0	0	560	
8	0	0	0	0	570	
9	0	0	0	0	478	
10	0	0	0	0	460	
11	0	0	0	0	528	
12	0	0	0	0	506	
13	0	0	0	0	504	
14	0	0	0	0	507	
15	0	0	0	0	515	
0	0	0	0	0	510	
1	0	0	0	0	508	
2	0	0	0	0	512	
3	0	0	0	0	509	
4	0	0	0	0	509	
5	0	0	0	0	507	
6	0	0	0	0	509	
7	0	0	0	0	510	
8	0	0	0	0	508	
9	0	0	0	0	509	
10	0	0	0	0	512	
11	0	0	0	0	509	
12	0	0	0	0	510	
13	0	0	0	0	512	
14	0	0	0	0	510	
15	0	0	0	0	512	
0	0	0	0	0	511	
1	0	0	0	0	513	
2	0	0	0	0	515	
3	0	0	0	0	514	
4	0	0	0	0	512	
5	0	0	0	0	511	
6	0	0	0	0	509	
7	0	0	0	0	509	
8	0	0	0	0	509	
9	0	0	0	0	507	
10	0	0	0	0	510	
11	0	0	0	0	508	
12	0	0	0	0	510	
13	0	0	0	0	513	
14	0	0	0	0	508	
15	0	0	0	0	511	
0	0	0	0	0	507	
1	0	0	0	0	510	
2	0	0	0	0	511	
3	0	0	0	0	512	
4	0	0	0	0	507	
5	0	0	0	0	509	
6	0	0	0	0	511	
7	0	0	0	0	508	
8	0	0	0	0	509	
9	0	0	0	0	508	
10	0	0	0	0	511	
11	0	0	0	0	511	
12	0	0	0	0	509	
13	0	0	0	0	509	
14	0	0	0	0	510	
15	0	0	0	0	506	
0	0	0	0	0	510	
1	0	0	0	0	509	
2	0	0	0	0	511	
3	0	0	0	0	508	
4	0	0	0	0	511	
5	0	0	0	0	510	
6	0	0	0	0	511	
7	0	0	0	0	508	
8	0	0	0	0	508	
9	0	0	0	0	507	
10	0	0	0	0	509	
11	0	0	0	0	508	
12	0	0	0	0	512	
13	0	0	0	0	472	
14	0	0	0	0	545	
15	0	0	0	0	569	
0	0	0	0	0	463	
1	0	0	0	0	484	
2	0	0	0	0	528	
3	0	0	0	0	512	
4	0	0	0	0	505	
5	0	0	0	0	510	
6	0	0	0	0	511	
7	0	0	0	0	506	
8	0	0	0	0	509	
9	0	0	0	0	509	
10	0	0	0	0	508	
11	0	0	0	0	509	
12	0	0	0	0	508	
13	0	0	0	0	510	
14	0	0	0	0	508	
15	0	0	0	0	510	
0	0	0	0	0	507	
1	0	0	0	0	510	
2	0	0	0	0	510	
3	0	0	0	0	508	
4	0	0	0	0	505	
5	0	0	0	0	507	
6	0	0	0	0	510	
7	0	0	0	0	510	
8	0	0	0	0	509	
9	0	0	0	0	509	
10	0	0	0	0	511	
11	0	0	0	0	506	
12	0	0	0	0	510	
13	0	0	0	0	509	
14	0	0	0	0	509	
15	0	0	0	0	510	
0	0	0	0	0	505	
1	0	0	0	0	508	
2	0	0	0	0	506	
3	0	0	0	0	507	
4	0	0	0	0	510	
5	0	0	0	0	511	
6	0	0	0	0	512	
7	0	0	0	0	510	
8	0	0	0	0	509	
9	0	0	0	0	511	
10	0	0	0	0	510	
11	0	0	0	0	509	
12	0	0	0	0	507	
13	0	0	0	0	508	
14	0	0	0	0	508	
15	0	0	0	0	511	
0	0	0	0	0	508	
1	0	0	0	0	508	
2	0	0	0	0	510	
3	0	0	0	0	508	
4	0	0	0	0	509	
5	0	0	0	0	510	
6	0	0	0	0	508	
7	0	0	0	0	510	
8	0	0	0	0	511	
9	0	0	0	0	508	
10	0	0	0	0	508	
11	0	0	0	0	508	
12	0	0	0	0	508	
13	0	0	0	0	507	
14	0	0	0	0	512	
15	0	0	0	0	508	
0	0	0	0	0	513	
1	0	0	0	0	510	
2	0	0	0	0	512	
3	0	0	0	0	510	
4	0	0	0	0	512	
5	0	0	0	0	509	
6	0	0	0	0	509	
7	0	0	0	0	510	
8	0	0	0	0	511	
9	0	0	0	0	510	
10	0	0	0	0	508	
11	0	0	0	0	509	
12	0	0	0	0	509	
13	0	0	0	0	510	
14	0	0	0	0	507	
15	0	0	0	0	510	
0	0	0	0	0	506	
1	0	0	0	0	511	
2	0	0	0	0	509	
3	0	0	0	0	508	
4	0	0	0	0	511	
5	0	0	0	0	509	
6	0	0	0	0	513	
7	0	0	0	0	510	
8	0	0	0	0	511	
9	0	0	0	0	517	
10	0	0	0	0	507	
11	0	0	0	0	509	
12	0	0	0	0	510	
13	0	0	0	0	508	
14	0	0	0	0	510	
15	0	0	0	0	511	
0	0	0	0	0	511	
1	0	0	0	0	511	
2	0	0	0	0	446	
3	0	0	0	0	572	
4	0	0	0	0	577	
5	0	0	0	0	447	
6	0	0	0	0	493	
7	0	0	0	0	537	
8	0	0	0	0	505	
9	0	0	0	0	511	
10	0	0	0	0	506	
11	0	0	0	0	512	
12	0	0	0	0	508	
13	0	0	0	0	509	
14	0	0	0	0	509	
15	0	0	0	0	511	
0	0	0	0	0	506	
1	0	0	0	0	508	
2	0	0	0	0	508	
3	0	0	0	0	510	
4	0	0	0	0	505	
5	0	0	0	0	509	
6	0	0	0	0	510	
7	0	0	0	0	507	
8	0	0	0	0	507	
9	0	0	0	0	508	
10	0	0	0	0	508	
11	0	0	0	0	507	
12	0	0	0	0	507	
13	0	0	0	0	511	
14	0	0	0	0	509	
15	0	0	0	0	509	
0	0	0	0	0	508	
1	0	0	0	0	511	
2	0	0	0	0	511	
3	0	0	0	0	511	
4	0	0	0	0	506	
5	0	0	0	0	507	
6	0	0	0	0	509	
7	0	0	0	0	508	
8	0	0	0	0	507	
9	0	0	0	0	510	
10	0	0	0	0	512	
11	0	0	0	0	510	
12	0	0	0	0	511	
13	0	0	0	0	509	
14	0	0	0	0	510	
15	0	0	0	0	513	
0	0	0	0	0	507	
1	0	0	0	0	509	
2	0	0	0	0	508	
3	0	0	0	0	508	
4	0	0	0	0	510	
5	0	0	0	0	512	
6	0	0	0	0	508	
7	0	0	0	0	510	
8	0	0	0	0	509	
9	0	0	0	0	510	
10	0	0	0	0	509	
11	0	0	0	0	510	
12	0	0	0	0	511	
13	0	0	0	0	512	
14	0	0	0	0	507	
15	0	0	0	0	510	
0	0	0	0	0	510	
1	0	0	0	0	513	
2	0	0	0	0	508	
3	0	0	0	0	508	
4	0	0	0	0	507	
5	0	0	0	0	507	
6	0	0	0	0	512	
7	0	0	0	0	508	
8	0	0	0	0	508	
9	0	0	0	0	508	
10	0	0	0	0	507	
11	0	0	0	0	510	
12	0	0	0	0	509	
13	0	0	0	0	509	
14	0	0	0	0	508	
15	0	0	0	0	509	
0	0	0	0	0	508	
1	0	0	0	0	510	
2	0	0	0	0	510	
3	0	0	0	0	511	
4	0	0	0	0	507	
5	0	0	0	0	506	
6	0	0	0	0	506	
7	0	0	0	0	508	
8	0	0	0	0	507	
9	0	0	0	0	510	
10	0	0	0	0	511	
11	0	0	0	0	511	
12	0	0	0	0	511	
13	0	0	0	0	509	
14	0	0	0	0	509	
15	0	0	0	0	510	
0	0	0	0	0	508	
1	0	0	0	0	510	
2	0	0	0	0	512	
3	0	0	0	0	510	
4	0	0	0	0	511	
5	0	0	0	0	513	
6	0	0	0	0	437	
7	0	0	0	0	583	
8	0	0	0	0	578	
9	0	0	0	0	437	
10	0	0	0	0	492	
11	0	0	0	0	531	
12	0	0	0	0	507	
13	0	0	0	0	507	
14	0	0	0	0	507	
15	0	0	0	0	511	
0	0	0	0	0	510	
1	0	0	0	0	507	
2	0	0	0	0	511	
3	0	0	0	0	509	
4	0	0	0	0	506	
5	0	0	0	0	510	
6	0	0	0	0	509	
7	0	0	0	0	511	
8	0	0	0	0	510	
9	0	0	0	0	509	
10	0	0	0	0	510	
11	0	0	0	0	510	
12	0	0	0	0	510	
13	0	0	0	0	508	
14	0	0	0	0	507	
15	0	0	0	0	510	
0	0	0	0	0	511	
1	0	0	0	0	509	
2	0	0	0	0	511	
3	0	0	0	0	509	
4	0	0	0	0	511	
5	0	0	0	0	510	
6	0	0	0	0	513	
7	0	0	0	0	510	
8	0	0	0	0	508	
9	0	0	0	0	512	
10	0	0	0	0	508	
11	0	0	0	0	508	
12	0	0	0	0	508	
13	0	0	0	0	507	
14	0	0	0	0	508	
15	0	0	0	0	510	
0	0	0	0	0	509	
1	0	0	0	0	509	
2	0	0	0	0	511	
3	0	0	0	0	512	
4	0	0	0	0	511	
5	0	0	0	0	510	
6	0	0	0	0	508	
7	0	0	0	0	508	
8	0	0	0	0	507	
9	0	0	0	0	507	
10	0	0	0	0	508	
11	0	0	0	0	508	
12	0	0	0	0	507	
13	0	0	0	0	505	
14	0	0	0	0	508	
15	0	0	0	0	511	
0	0	0	0	0	509	
1	0	0	0	0	509	
2	0	0	0	0	509	
3	0	0	0	0	508	
4	0	0	0	0	511	
5	0	0	0	0	508	
6	0	0	0	0	508	
7	0	0	0	0	511	
8	0	0	0	0	508	
9	0	0	0	0	509	
10	0	0	0	0	508	
11	0	0	0	0	509	
12	0	0	0	0	508	
13	0	0	0	0	510	
14	0	0	0	0	509	
15	0	0	0	0	508	
0	0	0	0	0	506	
1	0	0	0	0	506	
2	0	0	0	0	510	
3	0	0	0	0	510	
4	0	0	0	0	511	
5	0	0	0	0	509	
6	0	0	0	0	509	
7	0	0	0	0	510	
8	0	0	0	0	513	
9	0	0	0	0	507	
10	0	0	0	0	510	
11	0	0	0	0	511	
12	0	0	0	0	507	
13	0	0	0	0	512	
14	0	0	0	0	510	
15	0	0	0	0	509	
0	0	0	0	0	509	
1	0	0	0	0	508	
2	0	0	0	0	510	
3	0	0	0	0	509	
4	0	0	0	0	508	
5	0	0	0	0	514	
6	0	0	0	0	501	
7	0	0	0	0	453	
8	0	0	0	0	579	
9	0	0	0	0	543	
10	0	0	0	0	467	
11	0	0	0	0	504	
12	0	0	0	0	529	
13	0	0	0	0	504	
14	0	0	0	0	504	
15	0	0	0	0	511	
0	0	0	0	0	508	
1	0	0	0	0	511	
2	0	0	0	0	510	
3	0	0	0	0	508	
4	0	0	0	0	508	
5	0	0	0	0	507	
6	0	0	0	0	510	
7	0	0	0	0	509	
8	0	0	0	0	509	
9	0	0	0	0	510	
10	0	0	0	0	508	
11	0	0	0	0	510	
12	0	0	0	0	509	
13	0	0	0	0	509	
14	0	0	0	0	508	
15	0	0	0	0	510	
0	0	0	0	0	510	
1	0	0	0	0	511	
2	0	0	0	0	510	
3	0	0	0	0	510	
4	0	0	0	0	511	
5	0	0	0	0	510	
6	0	0	0	0	510	
7	0	0	0	0	509	
8	0	0	0	0	509	
9	0	0	0	0	509	
10	0	0	0	0	508	
11	0	0	0	0	508	
12	0	0	0	0	507	
13	0	0	0	0	509	
14	0	0	0	0	508	
15	0	0	0	0	509	
0	0	0	0	0	508	
1	0	0	0	0	509	
2	0	0	0	0	508	
3	0	0	0	0	510	
4	0	0	0	0	507	
5	0	0	0	0	508	
6	0	0	0	0	509	
7	0	0	0	0	507	
8	0	0	0	0	509	
9	0	0	0	0	510	
10	0	0	0	0	511	
11	0	0	0	0	509	
12	0	0	0	0	507	
13	0	0	0	0	510	
14	0	0	0	0	510	
15	0	0	0	0	512	
0	0	0	0	0	509	
1	0	0	0	0	510	
2	0	0	0	0	507	
3	0	0	0	0	509	
4	0	0	0	0	507	
5	0	0	0	0	508	
6	0	0	0	0	507	
7	0	0	0	0	510	
8	0	0	0	0	509	
9	0	0	0	0	507	
10	0	0	0	0	511	
11	0	0	0	0	509	
12	0	0	0	0	508	
13	0	0	0	0	510	
14	0	0	0	0	509	
15	0	0	0	0	508	
0	0	0	0	0	507	
1	0	0	0	0	510	
2	0	0	0	0	509	
3	0	0	0	0	513	
4	0	0	0	0	507	
5	0	0	0	0	509	
6	0	0	0	0	509	
7	0	0	0	0	510	
8	0	0	0	0	507	
9	0	0	0	0	510	
10	0	0	0	0	507	
11	0	0	0	0	512	
12	0	0	0	0	506	
13	0	0	0	0	512	
14	0	0	0	0	509	
15	0	0	0	0	510	
0	0	0	0	0	509	
1	0	0	0	0	511	
2	0	0	0	0	508	
3	0	0	0	0	510	
4	0	0	0	0	507	
5	0	0	0	0	513	
6	0	0	0	0	487	
7	0	0	0	0	481	
8	0	0	0	0	583	
9	0	0	0	0	507	
10	0	0	0	0	434	
11	0	0	0	0	532	
12	0	0	0	0	519	
13	0	0	0	0	506	
14	0	0	0	0	508	
15	0	0	0	0	508	
0	0	0	0	0	507	
1	0	0	0	0	511	
2	0	0	0	0	508	
3	0	0	0	0	510	
4	0	0	0	0	507	
5	0	0	0	0	510	
6	0	0	0	0	509	
7	0	0	0	0	510	
8	0	0	0	0	508	
9	0	0	0	0	513	
10	0	0	0	0	508	
11	0	0	0	0	511	
12	0	0	0	0	509	
13	0	0	0	0	511	
14	0	0	0	0	508	
15	0	0	0	0	511	
0	0	0	0	0	509	
1	0	0	0	0	509	
2	0	0	0	0	509	
3	0	0	0	0	509	
4	0	0	0	0	510	
5	0	0	0	0	511	
6	0	0	0	0	512	
7	0	0	0	0	509	
8	0	0	0	0	505	
9	0	0	0	0	510	
10	0	0	0	0	510	
11	0	0	0	0	513	
12	0	0	0	0	508	
13	0	0	0	0	511	
14	0	0	0	0	510	
15	0	0	0	0	513	
0	0	0	0	0	505	
1	0	0	0	0	510	
2	0	0	0	0	511	
3	0	0	0	0	511	
4	0	0	0	0	505	
5	0	0	0	0	511	
6	0	0	0	0	509	
7	0	0	0	0	510	
8	0	0	0	0	510	
9	0	0	0	0	512	
10	0	0	0	0	509	
11	0	0	0	0	508	
12	0	0	0	0	506	
13	0	0	0	0	510	
14	0	0	0	0	509	
15	0	0	0	0	510	
0	0	0	0	0	509	
1	0	0	0	0	508	
2	0	0	0	0	508	
3	0	0	0	0	509	
4	0	0	0	0	508	
5	0	0	0	0	510	
6	0	0	0	0	508	
7	0	0	0	0	511	
8	0	0	0	0	506	
9	0	0	0	0	509	
10	0	0	0	0	509	
11	0	0	0	0	509	
12	0	0	0	0	507	
13	0	0	0	0	509	
14	0	0	0	0	510	
15	0	0	0	0	507	
0	0	0	0	0	511	
1	0	0	0	0	508	
2	0	0	0	0	510	
3	0	0	0	0	512	
4	0	0	0	0	507	
5	0	0	0	0	512	
6	0	0	0	0	510	
7	0	0	0	0	510	
8	0	0	0	0	508	
9	0	0	0	0	508	
10	0	0	0	0	507	
11	0	0	0	0	511	
12	0	0	0	0	506	
13	0	0	0	0	508	
14	0	0	0	0	511	
15	0	0	0	0	512	
0	0	0	0	0	505	
1	0	0	0	0	508	
2	0	0	0	0	511	
3	0	0	0	0	511	
4	0	0	0	0	508	
5	0	0	0	0	510	
6	0	0	0	0	509	
7	0	0	0	0	514	
8	0	0	0	0	498	
9	0	0	0	0	448	
10	0	0	0	0	610	
11	0	0	0	0	556	
12	0	0	0	0	435	
13	0	0	0	0	518	
14	0	0	0	0	529	
15	0	0	0	0	509	
0	0	0	0	0	507	
1	0	0	0	0	511	
2	0	0	0	0	510	
3	0	0	0	0	512	
4	0	0	0	0	506	
5	0	0	0	0	508	
6	0	0	0	0	509	
7	0	0	0	0	509	
8	0	0	0	0	506	
9	0	0	0	0	509	
10	0	0	0	0	509	
11	0	0	0	0	511	
12	0	0	0	0	508	
13	0	0	0	0	509	
14	0	0	0	0	509	
15	0	0	0	0	512	
0	0	0	0	0	508	
1	0	0	0	0	509	
2	0	0	0	0	510	
3	0	0	0	0	511	
4	0	0	0	0	508	
5	0	0	0	0	512	
6	0	0	0	0	510	
7	0	0	0	0	511	
8	0	0	0	0	511	
9	0	0	0	0	511	
10	0	0	0	0	511	
11	0	0	0	0	509	
12	0	0	0	0	506	
13	0	0	0	0	511	
14	0	0	0	0	509	
15	0	0	0	0	508	
0	0	0	0	0	508	
1	0	0	0	0	509	
2	0	0	0	0	508	
3	0	0	0	0	510	
4	0	0	0	0	508	
5	0	0	0	0	510	
6	0	0	0	0	510	
7	0	0	0	0	508	
8	0	0	0	0	510	
9	0	0	0	0	508	
10	0	0	0	0	510	
11	0	0	0	0	510	
12	0	0	0	0	510	
13	0	0	0	0	511	
14	0	0	0	0	510	
15	0	0	0	0	511	
0	0	0	0	0	508	
1	0	0	0	0	511	
2	0	0	0	0	508	
3	0	0	0	0	512	
4	0	0	0	0	509	
5	0	0	0	0	509	
6	0	0	0	0	509	
7	0	0	0	0	511	
8	0	0	0	0	509	
9	0	0	0	0	508	
10	0	0	0	0	508	
11	0	0	0	0	512	
12	0	0	0	0	507	
13	0	0	0	0	511	
14	0	0	0	0	511	
15	0	0	0	0	511	
0	0	0	0	0	507	
1	0	0	0	0	512	
2	0	0	0	0	508	
3	0	0	0	0	512	
4	0	0	0	0	509	
5	0	0	0	0	511	
6	0	0	0	0	509	
7	0	0	0	0	510	
8	0	0	0	0	509	
9	0	0	0	0	511	
10	0	0	0	0	510	
11	0	0	0	0	507	
12	0	0	0	0	509	
13	0	0	0	0	515	
14	0	0	0	0	510	
15	0	0	0	0	510	
0	0	0	0	0	508	
1	0	0	0	0	511	
2	0	0	0	0	513	
3	0	0	0	0	482	
4	0	0	0	0	481	
5	0	0	0	0	594	
6	0	0	0	0	503	
7	0	0	0	0	423	
8	0	0	0	0	542	
9	0	0	0	0	520	
10	0	0	0	0	508	
11	0	0	0	0	508	
12	0	0	0	0	509	
13	0	0	0	0	511	
14	0	0	0	0	507	
15	0	0	0	0	511	
0	0	0	0	0	508	
1	0	0	0	0	510	
2	0	0	0	0	507	
3	0	0	0	0	512	
4	0	0	0	0	511	
5	0	0	0	0	510	
6	0	0	0	0	508	
7	0	0	0	0	511	
8	0	0	0	0	508	
9	0	0	0	0	509	
10	0	0	0	0	510	
11	0	0	0	0	509	
12	0	0	0	0	508	
13	0	0	0	0	511	
14	0	0	0	0	512	
15	0	0	0	0	512	
0	0	0	0	0	510	
1	0	0	0	0	511	
2	0	0	0	0	512	
3	0	0	0	0	512	
4	0	0	0	0	508	
5	0	0	0	0	508	
6	0	0	0	0	507	
7	0	0	0	0	507	
8	0	0	0	0	509	
9	0	0	0	0	508	
10	0	0	0	0	510	
11	0	0	0	0	508	
12	0	0	0	0	508	
13	0	0	0	0	509	
14	0	0	0	0	510	
15	0	0	0	0	511	
0	0	0	0	0	510	
1	0	0	0	0	512	
2	0	0	0	0	509	
3	0	0	0	0	512	
4	0	0	0	0	508	
5	0	0	0	0	508	
6	0	0	0	0	510	
7	0	0	0	0	512	
8	0	0	0	0	509	
9	0	0	0	0	509	
10	0	0	0	0	509	
11	0	0	0	0	509	
12	0	0	0	0	509	
13	0	0	0	0	513	
14	0	0	0	0	511	
15	0	0	0	0	509	
0	0	0	0	0	506	
1	0	0	0	0	510	
2	0	0	0	0	510	
3	0	0	0	0	510	
4	0	0	0	0	509	
5	0	0	0	0	512	
6	0	0	0	0	507	
7	0	0	0	0	512	
8	0	0	0	0	508	
9	0	0	0	0	507	
10	0	0	0	0	508	
11	0	0	0	0	510	
12	0	0	0	0	508	
13	0	0	0	0	508	
14	0	0	0	0	508	
15	0	0	0	0	512	
0	0	0	0	0	510	
1	0	0	0	0	511	
2	0	0	0	0	507	
3	0	0	0	0	510	
4	0	0	0	0	509	
5	0	0	0	0	516	
6	0	0	0	0	485	
7	0	0	0	0	474	
8	0	0	0	0	591	
9	0	0	0	0	507	
10	0	0	0	0	428	
11	0	0	0	0	535	
12	0	0	0	0	515	
13	0	0	0	0	511	
14	0	0	0	0	509	
15	0	0	0	0	510	
0	0	0	0	0	508	
1	0	0	0	0	510	
2	0	0	0	0	507	
3	0	0	0	0	510	
4	0	0	0	0	506	
5	0	0	0	0	510	
6	0	0	0	0	510	
7	0	0	0	0	508	
8	0	0	0	0	508	
9	0	0	0	0	513	
10	0	0	0	0	510	
11	0	0	0	0	509	
12	0	0	0	0	508	
13	0	0	0	0	509	
14	0	0	0	0	510	
15	0	0	0	0	511	
0	0	0	0	0	510	
1	0	0	0	0	512	
2	0	0	0	0	511	
3	0	0	0	0	509	
4	0	0	0	0	512	
5	0	0	0	0	511	
6	0	0	0	0	509	
7	0	0	0	0	510	
8	0	0	0	0	505	
9	0	0	0	0	508	
10	0	0	0	0	507	
11	0	0	0	0	511	
12	0	0	0	0	509	
13	0	0	0	0	509	
14	0	0	0	0	508	
15	0	0	0	0	513	
0	0	0	0	0	507	
1	0	0	0	0	510	
2	0	0	0	0	510	
3	0	0	0	0	510	
4	0	0	0	0	508	
5	0	0	0	0	509	
6	0	0	0	0	506	
7	0	0	0	0	509	
8	0	0	0	0	508	
9	0	0	0	0	510	
10	0	0	0	0	510	
11	0	0	0	0	510	
12	0	0	0	0	507	
13	0	0	0	0	511	
14	0	0	0	0	508	
15	0	0	0	0	511	
0	0	0	0	0	512	
1	0	0	0	0	511	
2	0	0	0	0	510	
3	0	0	0	0	507	
4	0	0	0	0	510	
5	0	0	0	0	510	
6	0	0	0	0	509	
7	0	0	0	0	510	
8	0	0	0	0	507	
9	0	0	0	0	508	
10	0	0	0	0	509	
11	0	0	0	0	511	
12	0	0	0	0	508	
13	0	0	0	0	509	
14	0	0	0	0	507	
15	0	0	0	0	512	
0	0	0	0	0	509	
1	0	0	0	0	511	
2	0	0	0	0	510	
3	0	0	0	0	510	
4	0	0	0	0	509	
5	0	0	0	0	511	
6	0	0	0	0	509	
7	0	0	0	0	513	
8	0	0	0	0	430	
9	0	0	0	0	583	
10	0	0	0	0	578	
11	0	0	0	0	442	
12	0	0	0	0	478	
13	0	0	0	0	531	
14	0	0	0	0	508	
15	0	0	0	0	511	
0	0	0	0	0	507	
1	0	0	0	0	511	
2	0	0	0	0	511	
3	0	0	0	0	512	
4	0	0	0	0	505	
5	0	0	0	0	509	
6	0	0	0	0	505	
7	0	0	0	0	509	
8	0	0	0	0	508	
9	0	0	0	0	509	
10	0	0	0	0	509	
11	0	0	0	0	509	
12	0	0	0	0	508	
13	0	0	0	0	509	
14	0	0	0	0	509	
15	0	0	0	0	509	
0	0	0	0	0	509	
1	0	0	0	0	508	
2	0	0	0	0	512	
3	0	0	0	0	512	
4	0	0	0	0	509	
5	0	0	0	0	515	
6	0	0	0	0	508	
7	0	0	0	0	512	
8	0	0	0	0	511	
9	0	0	0	0	507	
10	0	0	0	0	510	
11	0	0	0	0	508	
12	0	0	0	0	508	
13	0	0	0	0	509	
14	0	0	0	0	507	
15	0	0	0	0	509	
0	0	0	0	0	507	
1	0	0	0	0	510	
2	0	0	0	0	510	
3	0	0	0	0	512	
4	0	0	0	0	508	
5	0	0	0	0	509	
6	0	0	0	0	508	
7	0	0	0	0	511	
8	0	0	0	0	507	
9	0	0	0	0	511	
10	0	0	0	0	509	
11	0	0	0	0	508	
12	0	0	0	0	506	
13	0	0	0	0	509	
14	0	0	0	0	507	
15	0	0	0	0	509	
0	0	0	0	0	508	
1	0	0	0	0	508	
2	0	0	0	0	509	
3	0	0	0	0	509	
4	0	0	0	0	508	
5	0	0	0	0	510	
6	0	0	0	0	507	
7	0	0	0	0	510	
8	0	0	0	0	508	
9	0	0	0	0	510	
10	0	0	0	0	509	
11	0	0	0	0	510	
12	0	0	0	0	510	
13	0	0	0	0	510	
14	0	0	0	0	508	
15	0	0	0	0	507	
0	0	0	0	0	507	
1	0	0	0	0	515	
2	0	0	0	0	511	
3	0	0	0	0	513	
4	0	0	0	0	509	
5	0	0	0	0	511	
6	0	0	0	0	507	
7	0	0	0	0	510	
8	0	0	0	0	509	
9	0	0	0	0	512	
10	0	0	0	0	508	
11	0	0	0	0	511	
12	0	0	0	0	511	
13	0	0	0	0	513	
14	0	0	0	0	460	
15	0	0	0	0	546	
0	0	0	0	0	600	
1	0	0	0	0	462	
2	0	0	0	0	447	
3	0	0	0	0	533	
4	0	0	0	0	510	
5	0	0	0	0	509	
6	0	0	0	0	508	
7	0	0	0	0	513	
8	0	0	0	0	510	
9	0	0	0	0	508	
10	0	0	0	0	505	
11	0	0	0	0	510	
12	0	0	0	0	510	
13	0	0	0	0	508	
14	0	0	0	0	510	
15	0	0	0	0	511	
0	0	0	0	0	508	
1	0	0	0	0	510	
2	0	0	0	0	508	
3	0	0	0	0	510	
4	0	0	0	0	508	
5	0	0	0	0	510	
6	0	0	0	0	511	
7	0	0	0	0	508	
8	0	0	0	0	509	
9	0	0	0	0	511	
10	0	0	0	0	506	
11	0	0	0	0	511	
12	0	0	0	0	511	
13	0	0	0	0	512	
14	0	0	0	0	511	
15	0	0	0	0	510	
0	0	0	0	0	508	
1	0	0	0	0	510	
2	0	0	0	0	507	
3	0	0	0	0	510	
4	0	0	0	0	505	
5	0	0	0	0	511	
6	0	0	0	0	508	
7	0	0	0	0	509	
8	0	0	0	0	512	
9	0	0	0	0	511	
10	0	0	0	0	508	
11	0	0	0	0	511	
12	0	0	0	0	507	
13	0	0	0	0	510	
14	0	0	0	0	511	
15	0	0	0	0	511	
0	0	0	0	0	507	
1	0	0	0	0	511	
2	0	0	0	0	510	
3	0	0	0	0	509	
4	0	0	0	0	508	
5	0	0	0	0	509	
6	0	0	0	0	508	
7	0	0	0	0	508	
8	0	0	0	0	509	
9	0	0	0	0	510	
10	0	0	0	0	509	
11	0	0	0	0	508	
12	0	0	0	0	509	
13	0	0	0	0	513	
14	0	0	0	0	509	
15	0	0	0	0	510	
0	0	0	0	0	508	
1	0	0	0	0	507	
2	0	0	0	0	510	
3	0	0	0	0	506	
4	0	0	0	0	509	
5	0	0	0	0	512	
6	0	0	0	0	510	
7	0	0	0	0	509	
8	0	0	0	0	508	
9	0	0	0	0	510	
10	0	0	0	0	507	
11	0	0	0	0	508	
12	0	0	0	0	507	
13	0	0	0	0	510	
14	0	0	0	0	510	
15	0	0	0	0	508	
0	0	0	0	0	508	
1	0	0	0	0	513	
2	0	0	0	0	477	
3	0	0	0	0	505	
4	0	0	0	0	595	
5	0	0	0	0	483	
6	0	0	0	0	430	
7	0	0	0	0	536	
8	0	0	0	0	513	
9	0	0	0	0	507	
10	0	0	0	0	510	
11	0	0	0	0	508	
12	0	0	0	0	508	
13	0	0	0	0	508	
14	0	0	0	0	509	
15	0	0	0	0	511	
0	0	0	0	0	509	
1	0	0	0	0	510	
2	0	0	0	0	510	
3	0	0	0	0	509	
4	0	0	0	0	509	
5	0	0	0	0	511	
6	0	0	0	0	511	
7	0	0	0	0	509	
8	0	0	0	0	511	
9	0	0	0	0	512	
10	0	0	0	0	508	
11	0	0	0	0	510	
12	0	0	0	0	509	
13	0	0	0	0	510	
14	0	0	0	0	511	
15	0	0	0	0	511	
0	0	0	0	0	511	
1	0	0	0	0	512	
2	0	0	0	0	511	
3	0	0	0	0	508	
4	0	0	0	0	508	
5	0	0	0	0	508	
6	0	0	0	0	508	
7	0	0	0	0	512	
8	0	0	0	0	505	
9	0	0	0	0	509	
10	0	0	0	0	510	
11	0	0	0	0	511	
12	0	0	0	0	511	
13	0	0	0	0	509	
14	0	0	0	0	510	
15	0	0	0	0	511	
0	0	0	0	0	509	
1	0	0	0	0	510	
2	0	0	0	0	510	
3	0	0	0	0	511	
4	0	0	0	0	507	
5	0	0	0	0	513	
6	0	0	0	0	512	
7	0	0	0	0	509	
8	0	0	0	0	508	
9	0	0	0	0	511	
10	0	0	0	0	510	
11	0	0	0	0	510	
12	0	0	0	0	511	
13	0	0	0	0	512	
14	0	0	0	0	508	
15	0	0	0	0	508	
0	0	0	0	0	508	
1	0	0	0	0	511	
2	0	0	0	0	509	
3	0	0	0	0	510	
4	0	0	0	0	509	
5	0	0	0	0	513	
6	0	0	0	0	511	
7	0	0	0	0	509	
8	0	0	0	0	507	
9	0	0	0	0	509	
10	0	0	0	0	507	
11	0	0	0	0	512	
12	0	0	0	0	511	
13	0	0	0	0	512	
14	0	0	0	0	508	
15	0	0	0	0	510	
0	0	0	0	0	508	
1	0	0	0	0	511	
2	0	0	0	0	510	
3	0	0	0	0	512	
4	0	0	0	0	508	
5	0	0	0	0	510	
6	0	0	0	0	508	
7	0	0	0	0	514	
8	0	0	0	0	512	
9	0	0	0	0	448	
10	0	0	0	0	574	
11	0	0	0	0	590	
12	0	0	0	0	452	
13	0	0	0	0	480	
14	0	0	0	0	527	
15	0	0	0	0	508	
0	0	0	0	0	505	
1	0	0	0	0	510	
2	0	0	0	0	508	
3	0	0	0	0	510	
4	0	0	0	0	510	
5	0	0	0	0	510	
6	0	0	0	0	510	
7	0	0	0	0	509	
8	0	0	0	0	508	
9	0	0	0	0	508	
10	0	0	0	0	510	
11	0	0	0	0	512	
12	0	0	0	0	510	
13	0	0	0	0	512	
14	0	0	0	0	508	
15	0	0	0	0	509	
0	0	0	0	0	508	
1	0	0	0	0	510	
2	0	0	0	0	510	
3	0	0	0	0	509	
4	0	0	0	0	510	
5	0	0	0	0	509	
6	0	0	0	0	512	
7	0	0	0	0	515	
8	0	0	0	0	510	
9	0	0	0	0	512	
10	0	0	0	0	509	
11	0	0	0	0	508	
12	0	0	0	0	507	
13	0	0	0	0	508	
14	0	0	0	0	510	
15	0	0	0	0	509	
0	0	0	0	0	509	
1	0	0	0	0	511	
2	0	0	0	0	509	
3	0	0	0	0	510	
4	0	0	0	0	511	
5	0	0	0	0	508	
6	0	0	0	0	509	
7	0	0	0	0	511	
8	0	0	0	0	508	
9	0	0	0	0	508	
10	0	0	0	0	511	
11	0	0	0	0	506	
12	0	0	0	0	510	
13	0	0	0	0	508	
14	0	0	0	0	507	
15	0	0	0	0	508	
0	0	0	0	0	508	
1	0	0	0	0	511	
2	0	0	0	0	510	
3	0	0	0	0	510	
4	0	0	0	0	507	
5	0	0	0	0	510	
6	0	0	0	0	508	
7	0	0	0	0	508	
8	0	0	0	0	511	
9	0	0	0	0	510	
10	0	0	0	0	505	
11	0	0	0	0	512	
12	0	0	0	0	508	
13	0	0	0	0	511	
14	0	0	0	0	510	
15	0	0	0	0	511	
0	0	0	0	0	507	
1	0	0	0	0	507	
2	0	0	0	0	508	
3	0	0	0	0	511	
4	0	0	0	0	506	
5	0	0	0	0	510	
6	0	0	0	0	508	
7	0	0	0	0	508	
8	0	0	0	0	510	
9	0	0	0	0	511	
10	0	0	0	0	513	
11	0	0	0	0	504	
12	0	0	0	0	508	
13	0	0	0	0	510	
14	0	0	0	0	508	
15	0	0	0	0	508	
0	0	0	0	0	509	
1	0	0	0	0	510	
2	0	0	0	0	511	
3	0	0	0	0	511	
4	0	0	0	0	516	
5	0	0	0	0	488	
6	0	0	0	0	463	
7	0	0	0	0	593	
8	0	0	0	0	521	
9	0	0	0	0	425	
10	0	0	0	0	531	
11	0	0	0	0	520	
12	0	0	0	0	511	
13	0	0	0	0	508	
14	0	0	0	0	508	
15	0	0	0	0	511	
0	0	0	0	0	510	
1	0	0	0	0	503	
2	0	0	0	0	509	
3	0	0	0	0	508	
4	0	0	0	0	506	
5	0	0	0	0	510	
6	0	0	0	0	511	
7	0	0	0	0	510	
8	0	0	0	0	507	
9	0	0	0	0	511	
10	0	0	0	0	508	
11	0	0	0	0	510	
12	0	0	0	0	508	
13	0	0	0	0	512	
14	0	0	0	0	509	
15	0	0	0	0	512	
0	0	0	0	0	508	
1	0	0	0	0	509	
2	0	0	0	0	508	
3	0	0	0	0	509	
4	0	0	0	0	512	
5	0	0	0	0	507	
6	0	0	0	0	510	
7	0	0	0	0	508	
8	0	0	0	0	508	
9	0	0	0	0	508	
10	0	0	0	0	509	
11	0	0	0	0	508	
12	0	0	0	0	508	
13	0	0	0	0	508	
14	0	0	0	0	512	
15	0	0	0	0	508	
0	0	0	0	0	508	
1	0	0	0	0	508	
2	0	0	0	0	509	
3	0	0	0	0	508	
4	0	0	0	0	506	
5	0	0	0	0	510	
6	0	0	0	0	510	
7	0	0	0	0	506	
8	0	0	0	0	511	
9	0	0	0	0	509	
10	0	0	0	0	510	
11	0	0	0	0	507	
12	0	0	0	0	510	
13	0	0	0	0	507	
14	0	0	0	0	509	
15	0	0	0	0	511	
0	0	0	0	0	510	
1	0	0	0	0	511	
2	0	0	0	0	515	
3	0	0	0	0	513	
4	0	0	0	0	505	
5	0	0	0	0	508	
6	0	0	0	0	510	
7	0	0	0	0	506	
8	0	0	0	0	503	
9	0	0	0	0	510	
10	0	0	0	0	508	
11	0	0	0	0	512	
12	0	0	0	0	508	
13	0	0	0	0	506	
14	0	0	0	0	513	
15	0	0	0	0	509	
0	0	0	0	0	511	
1	0	0	0	0	510	
2	0	0	0	0	510	
3	0	0	0	0	507	
4	0	0	0	0	509	
5	0	0	0	0	509	
6	0	0	0	0	509	
7	0	0	0	0	508	
8	0	0	0	0	505	
9	0	0	0	0	509	
10	0	0	0	0	510	
11	0	0	0	0	510	
12	0	0	0	0	510	
13	0	0	0	0	512	
14	0	0	0	0	445	
15	0	0	0	0	576	
0	0	0	0	0	556	
1	0	0	0	0	460	
2	0	0	0	0	481	
3	0	0	0	0	531	
4	0	0	0	0	506	
5	0	0	0	0	507	
6	0	0	0	0	508	
7	0	0	0	0	510	
8	0	0	0	0	510	
9	0	0	0	0	509	
10	0	0	0	0	510	
11	0	0	0	0	510	
12	0	0	0	0	506	
13	0	0	0	0	510	
14	0	0	0	0	510	
15	0	0	0	0	510	
0	0	0	0	0	507	
1	0	0	0	0	513	
2	0	0	0	0	508	
3	0	0	0	0	506	
4	0	0	0	0	510	
5	0	0	0	0	510	
6	0	0	0	0	509	
7	0	0	0	0	512	
8	0	0	0	0	508	
9	0	0	0	0	511	
10	0	0	0	0	510	
11	0	0	0	0	511	
12	0	0	0	0	512	
13	0	0	0	0	512	
14	0	0	0	0	511	
15	0	0	0	0	509	
0	0	0	0	0	507	
1	0	0	0	0	508	
2	0	0	0	0	512	
3	0	0	0	0	509	
4	0	0	0	0	505	
5	0	0	0	0	509	
6	0	0	0	0	511	
7	0	0	0	0	515	
8	0	0	0	0	509	
9	0	0	0	0	509	
10	0	0	0	0	507	
11	0	0	0	0	514	
12	0	0	0	0	508	
13	0	0	0	0	509	
14	0	0	0	0	510	
15	0	0	0	0	511	
0	0	0	0	0	511	
1	0	0	0	0	509	
2	0	0	0	0	512	
3	0	0	0	0	511	
4	0	0	0	0	507	
5	0	0	0	0	508	
6	0	0	0	0	514	
7	0	0	0	0	505	
8	0	0	0	0	510	
9	0	0	0	0	509	
10	0	0	0	0	504	
11	0	0	0	0	512	
12	0	0	0	0	509	
13	0	0	0	0	508	
14	0	0	0	0	508	
15	0	0	0	0	505	
0	0	0	0	0	510	
1	0	0	0	0	511	
2	0	0	0	0	507	
3	0	0	0	0	509	
4	0	0	0	0	505	
5	0	0	0	0	513	
6	0	0	0	0	510	
7	0	0	0	0	508	
8	0	0	0	0	508	
9	0	0	0	0	512	
10	0	0	0	0	509	
11	0	0	0	0	512	
12	0	0	0	0	505	
13	0	0	0	0	511	
14	0	0	0	0	507	
15	0	0	0	0	512	
0	0	0	0	0	509	
1	0	0	0	0	507	
2	0	0	0	0	513	
3	0	0	0	0	506	
4	0	0	0	0	447	
5	0	0	0	0	608	
6	0	0	0	0	539	
7	0	0	0	0	421	
8	0	0	0	0	516	
9	0	0	0	0	526	
10	0	0	0	0	508	
11	0	0	0	0	510	
12	0	0	0	0	506	
13	0	0	0	0	513	
14	0	0	0	0	508	
15	0	0	0	0	510	
0	0	0	0	0	510	
1	0	0	0	0	509	
2	0	0	0	0	510	
3	0	0	0	0	509	
4	0	0	0	0	505	
5	0	0	0	0	511	
6	0	0	0	0	512	
7	0	0	0	0	510	
8	0	0	0	0	505	
9	0	0	0	0	510	
10	0	0	0	0	512	
11	0	0	0	0	512	
12	0	0	0	0	509	
13	0	0	0	0	511	
14	0	0	0	0	516	
15	0	0	0	0	528	
0	0	0	0	0	522	
1	0	0	0	0	505	
2	0	0	0	0	508	
3	0	0	0	0	513	
4	0	0	0	0	512	
5	0	0	0	0	516	
6	0	0	0	0	502	
7	0	0	0	0	514	
8	0	0	0	0	511	
9	0	0	0	0	508	
10	0	0	0	0	508	
11	0	0	0	0	508	
12	0	0	0	0	509	
13	0	0	0	0	511	
14	0	0	0	0	499	
15	0	0	0	0	524	
0	0	0	0	0	487	
1	0	0	0	0	504	
2	0	0	0	0	513	
3	0	0	0	0	512	
4	0	0	0	0	508	
5	0	0	0	0	506	
6	0	0	0	0	514	
7	0	0	0	0	511	
8	0	0	0	0	507	
9	0	0	0	0	508	
10	0	0	0	0	509	
11	0	0	0	0	511	
12	0	0	0	0	505	
13	0	0	0	0	508	
14	0	0	0	0	510	
15	0	0	0	0	518	
0	0	0	0	0	513	
1	0	0	0	0	505	
2	0	0	0	0	507	
3	0	0	0	0	510	
4	0	0	0	0	508	
5	0	0	0	0	508	
6	0	0	0	0	506	
7	0	0	0	0	508	
8	0	0	0	0	510	
9	0	0	0	0	508	
10	0	0	0	0	509	
11	0	0	0	0	508	
12	0	0	0	0	512	
13	0	0	0	0	509	
14	0	0	0	0	511	
15	0	0	0	0	508	
0	0	0	0	0	504	
1	0	0	0	0	509	
2	0	0	0	0	506	
3	0	0	0	0	510	
4	0	0	0	0	508	
5	0	0	0	0	511	
6	0	0	0	0	508	
7	0	0	0	0	511	
8	0	0	0	0	510	
9	0	0	0	0	499	
10	0	0	0	0	443	
11	0	0	0	0	613	
12	0	0	0	0	553	
13	0	0	0	0	416	
14	0	0	0	0	520	
15	0	0	0	0	523	
0	0	0	0	0	508	
1	0	0	0	0	509	
2	0	0	0	0	508	
3	0	0	0	0	511	
4	0	0	0	0	509	
5	0	0	0	0	504	
6	0	0	0	0	510	
7	0	0	0	0	508	
8	0	0	0	0	504	
9	0	0	0	0	509	
10	0	0	0	0	512	
11	0	0	0	0	507	
12	0	0	0	0	509	
13	0	0	0	0	508	
14	0	0	0	0	510	
15	0	0	0	0	510	
0	0	0	0	0	508	
1	0	0	0	0	511	
2	0	0	0	0	511	
3	0	0	0	0	513	
4	0	0	0	0	512	
5	0	0	0	0	511	
6	0	0	0	0	511	
7	0	0	0	0	510	
8	0	0	0	0	514	
9	0	0	0	0	513	
10	0	0	0	0	508	
11	0	0	0	0	511	
12	0	0	0	0	503	
13	0	0	0	0	507	
14	0	0	0	0	505	
15	0	0	0	0	507	
0	0	0	0	0	508	
1	0	0	0	0	509	
2	0	0	0	0	510	
3	0	0	0	0	510	
4	0	0	0	0	509	
5	0	0	0	0	511	
6	0	0	0	0	508	
7	0	0	0	0	507	
8	0	0	0	0	507	
9	0	0	0	0	508	
10	0	0	0	0	509	
11	0	0	0	0	511	
12	0	0	0	0	508	
13	0	0	0	0	510	
14	0	0	0	0	510	
15	0	0	0	0	510	
0	0	0	0	0	509	
1	0	0	0	0	508	
2	0	0	0	0	509	
3	0	0	0	0	514	
4	0	0	0	0	505	
5	0	0	0	0	513	
6	0	0	0	0	510	
7	0	0	0	0	512	
8	0	0	0	0	504	
9	0	0	0	0	511	
10	0	0	0	0	512	
11	0	0	0	0	508	
12	0	0	0	0	508	
13	0	0	0	0	511	
14	0	0	0	0	509	
15	0	0	0	0	507	
0	0	0	0	0	511	
1	0	0	0	0	511	
2	0	0	0	0	504	
3	0	0	0	0	508	
4	0	0	0	0	503	
5	0	0	0	0	515	
6	0	0	0	0	510	
7	0	0	0	0	514	
8	0	0	0	0	505	
9	0	0	0	0	512	
10	0	0	0	0	505	
11	0	0	0	0	512	
12	0	0	0	0	514	
13	0	0	0	0	518	
14	0	0	0	0	508	
15	0	0	0	0	493	
0	0	0	0	0	462	
1	0	0	0	0	586	
2	0	0	0	0	537	
3	0	0	0	0	438	
4	0	0	0	0	524	
5	0	0	0	0	533	
6	0	0	0	0	512	
7	0	0	0	0	504	
8	0	0	0	0	496	
9	0	0	0	0	512	
10	0	0	0	0	513	
11	0	0	0	0	504	
12	0	0	0	0	519	
13	0	0	0	0	510	
14	0	0	0	0	529	
15	0	0	0	0	512	
0	0	0	0	0	515	
1	0	0	0	0	497	
2	0	0	0	0	518	
3	0	0	0	0	519	
4	0	0	0	0	503	
5	0	0	0	0	507	
6	0	0	0	0	513	
7	0	0	0	0	506	
8	0	0	0	0	507	
9	0	0	0	0	506	
10	0	0	0	0	508	
11	0	0	0	0	526	
12	0	0	0	0	498	
13	0	0	0	0	515	
14	0	0	0	0	521	
15	0	0	0	0	519	
0	0	0	0	0	504	
1	0	0	0	0	500	
2	0	0	0	0	504	
3	0	0	0	0	541	
4	0	0	0	0	497	
5	0	0	0	0	497	
6	0	0	0	0	509	
7	0	0	0	0	512	
8	0	0	0	0	505	
9	0	0	0	0	496	
10	0	0	0	0	519	
11	0	0	0	0	515	
12	0	0	0	0	527	
13	0	0	0	0	501	
14	0	0	0	0	503	
15	0	0	0	0	499	
0	0	0	0	0	506	
1	0	0	0	0	513	
2	0	0	0	0	519	
3	0	0	0	0	515	
4	0	0	0	0	504	
5	0	0	0	0	525	
6	0	0	0	0	510	
7	0	0	0	0	505	
8	0	0	0	0	495	
9	0	0	0	0	501	
10	0	0	0	0	505	
11	0	0	0	0	525	
12	0	0	0	0	504	
13	0	0	0	0	505	
14	0	0	0	0	516	
15	0	0	0	0	502	
0	0	0	0	0	501	
1	0	0	0	0	505	
2	0	0	0	0	512	
3	0	0	0	0	512	
4	0	0	0	0	506	
5	0	0	0	0	501	
6	0	0	0	0	509	
7	0	0	0	0	512	
8	0	0	0	0	505	
9	0	0	0	0	508	
10	0	0	0	0	511	
11	0	0	0	0	490	
12	0	0	0	0	490	
13	0	0	0	0	563	
14	0	0	0	0	505	
15	0	0	0	0	416	
0	0	0	0	0	545	
1	0	0	0	0	525	
2	0	0	0	0	529	
3	0	0	0	0	502	
4	0	0	0	0	502	
5	0	0	0	0	504	
6	0	0	0	0	504	
7	0	0	0	0	512	
8	0	0	0	0	510	
9	0	0	0	0	503	
10	0	0	0	0	506	
11	0	0	0	0	519	
12	0	0	0	0	512	
13	0	0	0	0	525	
14	0	0	0	0	522	
15	0	0	0	0	522	
0	0	0	0	0	520	
1	0	0	0	0	524	
2	0	0	0	0	517	
3	0	0	0	0	515	
4	0	0	0	0	499	
5	0	0	0	0	508	
6	0	0	0	0	515	
7	0	0	0	0	506	
8	0	0	0	0	476	
9	0	0	0	0	492	
10	0	0	0	0	513	
11	0	0	0	0	535	
12	0	0	0	0	505	
13	0	0	0	0	518	
14	0	0	0	0	522	
15	0	0	0	0	512	
0	0	0	0	0	521	
1	0	0	0	0	520	
2	0	0	0	0	505	
3	0	0	0	0	480	
4	0	0	0	0	508	
5	0	0	0	0	493	
6	0	0	0	0	512	
7	0	0	0	0	507	
8	0	0	0	0	471	
9	0	0	0	0	526	
10	0	0	0	0	529	
11	0	0	0	0	511	
12	0	0	0	0	527	
13	0	0	0	0	524	
14	0	0	0	0	512	
15	0	0	0	0	510	
0	0	0	0	0	504	
1	0	0	0	0	513	
2	0	0	0	0	510	
3	0	0	0	0	486	
4	0	0	0	0	493	
5	0	0	0	0	509	
6	0	0	0	0	518	
7	0	0	0	0	540	
8	0	0	0	0	535	
9	0	0	0	0	534	
10	0	0	0	0	523	
11	0	0	0	0	492	
12	0	0	0	0	462	
13	0	0	0	0	500	
14	0	0	0	0	526	
15	0	0	0	0	518	
0	0	0	0	0	494	
1	0	0	0	0	530	
2	0	0	0	0	541	
3	0	0	0	0	483	
4	0	0	0	0	429	
5	0	0	0	0	576	
6	0	0	0	0	550	
7	0	0	0	0	489	
8	0	0	0	0	496	
9	0	0	0	0	511	
10	0	0	0	0	518	
11	0	0	0	0	494	
12	0	0	0	0	498	
13	0	0	0	0	527	
14	0	0	0	0	507	
15	0	0	0	0	523	
0	0	0	0	0	488	
1	0	0	0	0	482	
2	0	0	0	0	507	
3	0	0	0	0	521	
4	0	0	0	0	514	
5	0	0	0	0	595	
6	0	0	0	0	509	
7	0	0	0	0	496	
8	0	0	0	0	450	
9	0	0	0	0	452	
10	0	0	0	0	476	
11	0	0	0	0	551	
12	0	0	0	0	555	
13	0	0	0	0	517	
14	0	0	0	0	474	
15	0	0	0	0	496	
0	0	0	0	0	504	
1	0	0	0	0	515	
2	0	0	0	0	517	
3	0	0	0	0	513	
4	0	0	0	0	506	
5	0	0	0	0	494	
6	0	0	0	0	491	
7	0	0	0	0	486	
8	0	0	0	0	531	
9	0	0	0	0	571	
10	0	0	0	0	438	
11	0	0	0	0	537	
12	0	0	0	0	485	
13	0	0	0	0	534	
14	0	0	0	0	440	
15	0	0	0	0	547	
0	0	0	0	0	519	
1	0	0	0	0	483	
2	0	0	0	0	504	
3	0	0	0	0	520	
4	0	0	0	0	503	
5	0	0	0	0	511	
6	0	0	0	0	499	
7	0	0	0	0	511	
8	0	0	0	0	500	
9	0	0	0	0	579	
10	0	0	0	0	555	
11	0	0	0	0	521	
12	0	0	0	0	527	
13	0	0	0	0	483	
14	0	0	0	0	479	
15	0	0	0	0	482	
0	0	0	0	0	500	
1	0	0	0	0	516	
2	0	0	0	0	549	
3	0	0	0	0	498	
4	0	0	0	0	523	
5	0	0	0	0	519	
6	0	0	0	0	505	
7	0	0	0	0	503	
8	0	0	0	0	474	
9	0	0	0	0	513	
10	0	0	0	0	484	
11	0	0	0	0	501	
12	0	0	0	0	515	
13	0	0	0	0	463	
14	0	0	0	0	547	
15	0	0	0	0	547	
0	0	0	0	0	469	
1	0	0	0	0	437	
2	0	0	0	0	563	
3	0	0	0	0	502	
4	0	0	0	0	466	
5	0	0	0	0	561	
6	0	0	0	0	579	
7	0	0	0	0	476	
8	0	0	0	0	576	
9	0	0	0	0	437	
10	0	0	0	0	524	
11	0	0	0	0	565	
12	0	0	0	0	355	
13	0	0	0	0	593	
14	0	0	0	0	489	
15	0	0	0	0	479	
0	0	0	0	0	598	
1	0	0	0	0	503	
2	0	0	0	0	447	
3	0	0	0	0	647	
4	0	0	0	0	408	
5	0	0	0	0	472	
6	0	0	0	0	507	
7	0	0	0	0	477	
8	0	0	0	0	529	
9	0	0	0	0	559	
10	0	0	0	0	502	
11	0	0	0	0	533	
12	0	0	0	0	514	
13	0	0	0	0	471	
14	0	0	0	0	532	
15	0	0	0	0	455	
0	0	0	0	0	588	
1	0	0	0	0	430	
2	0	0	0	0	415	
3	0	0	0	0	604	
4	0	0	0	0	443	
5	0	0	0	0	536	
6	0	0	0	0	564	
7	0	0	0	0	449	
8	0	0	0	0	531	
9	0	0	0	0	520	
10	0	0	0	0	396	
11	0	0	0	0	568	
12	0	0	0	0	524	
13	0	0	0	0	508	
14	0	0	0	0	558	
15	0	0	0	0	421	
0	0	0	0	0	541	
1	0	0	0	0	514	
2	0	0	0	0	416	
3	0	0	0	0	537	
4	0	0	0	0	513	
5	0	0	0	0	474	
6	0	0	0	0	543	
7	0	0	0	0	490	
8	0	0	0	0	484	
9	0	0	0	0	536	
10	0	0	0	0	564	
11	0	0	0	0	464	
12	0	0	0	0	563	
13	0	0	0	0	578	
14	0	0	0	0	473	
15	0	0	0	0	515	
0	0	0	0	0	477	
1	0	0	0	0	550	
2	0	0	0	0	479	
3	0	0	0	0	502	
4	0	0	0	0	527	
5	0	0	0	0	489	
6	0	0	0	0	436	
7	0	0	0	0	633	
8	0	0	0	0	467	
9	0	0	0	0	521	
10	0	0	0	0	517	
11	0	0	0	0	504	
12	0	0	0	0	488	
13	0	0	0	0	550	
14	0	0	0	0	484	
15	0	0	0	0	496	
0	0	0	0	0	498	
1	0	0	0	0	498	
2	0	0	0	0	531	
3	0	0	0	0	479	
4	0	0	0	0	532	
5	0	0	0	0	545	
6	0	0	0	0	466	
7	0	0	0	0	524	
8	0	0	0	0	475	
9	0	0	0	0	522	
10	0	0	0	0	496	
11	0	0	0	0	511	
12	0	0	0	0	528	
13	0	0	0	0	456	
14	0	0	0	0	553	
15	0	0	0	0	456	
0	0	0	0	0	531	
1	0	0	0	0	493	
2	0	0	0	0	509	
3	0	0	0	0	568	
4	0	0	0	0	473	
5	0	0	0	0	429	
6	0	0	0	0	574	
7	0	0	0	0	464	
8	0	0	0	0	502	
9	0	0	0	0	545	
10	0	0	0	0	473	
11	0	0	0	0	463	
12	0	0	0	0	547	
13	0	0	0	0	505	
14	0	0	0	0	547	
15	0	0	0	0	448	
0	0	0	0	0	539	
1	0	0	0	0	512	
2	0	0	0	0	523	
3	0	0	0	0	504	
4	0	0	0	0	496	
5	0	0	0	0	536	
6	0	0	0	0	491	
7	0	0	0	0	470	
8	0	0	0	0	529	
9	0	0	0	0	440	
10	0	0	0	0	501	
11	0	0	0	0	545	
12	0	0	0	0	447	
13	0	0	0	0	573	
14	0	0	0	0	451	
15	0	0	0	0	551	
0	0	0	0	0	433	
1	0	0	0	0	576	
2	0	0	0	0	597	
3	0	0	0	0	414	
4	0	0	0	0	461	
5	0	0	0	0	546	
6	0	0	0	0	510	
7	0	0	0	0	645	
8	0	0	0	0	390	
9	0	0	0	0	531	
10	0	0	0	0	555	
11	0	0	0	0	467	
12	0	0	0	0	641	
13	0	0	0	0	371	
14	0	0	0	0	505	
15	0	0	0	0	619	
0	0	0	0	0	370	
1	0	0	0	0	589	
2	0	0	0	0	569	
3	0	0	0	0	451	
4	0	0	0	0	544	
5	0	0	0	0	492	
6	0	0	0	0	566	
7	0	0	0	0	603	
8	0	0	0	0	563	
9	0	0	0	0	350	
10	0	0	0	0	700	
11	0	0	0	0	469	
12	0	0	0	0	497	
13	0	0	0	0	356	
14	0	0	0	0	538	
15	0	0	0	0	712	
0	0	0	0	0	295	
1	0	0	0	0	588	
2	0	0	0	0	492	
3	0	0	0	0	431	
4	0	0	0	0	525	
5	0	0	0	0	384	
6	0	0	0	0	593	
7	0	0	0	0	592	
8	0	0	0	0	593	
9	0	0	0	0	635	
10	0	0	0	0	415	
11	0	0	0	0	540	
12	0	0	0	0	569	
13	0	0	0	0	533	
14	0	0	0	0	309	
15	0	0	0	0	694	
0	0	0	0	0	580	
1	0	0	0	0	397	
2	0	0	0	0	461	
3	0	0	0	0	472	
4	0	0	0	0	480	
5	0	0	0	0	259	
6	0	0	0	0	751	
7	0	0	0	0	531	
8	0	0	0	0	446	
9	0	0	0	0	391	
10	0	0	0	0	584	
11	0	0	0	0	585	
12	0	0	0	0	559	
13	0	0	0	0	596	
14	0	0	0	0	512	
15	0	0	0	0	430	
0	0	0	0	0	547	
1	0	0	0	0	537	
2	0	0	0	0	748	
3	0	0	0	0	414	
4	0	0	0	0	416	
5	0	0	0	0	579	
6	0	0	0	0	523	
7	0	0	0	0	375	
8	0	0	0	0	503	
9	0	0	0	0	740	
10	0	0	0	0	611	
11	0	0	0	0	401	
12	0	0	0	0	508	
13	0	0	0	0	621	
14	0	0	0	0	572	
15	0	0	0	0	285	
0	0	0	0	0	648	
1	0	0	0	0	984	
2	0	0	0	0	195	
3	0	0	0	0	454	
4	0	0	0	0	780	
5	0	0	0	0	369	
6	0	0	0	0	619	
7	0	0	0	0	714	
8	0	0	0	0	374	
9	0	0	0	0	568	
10	0	0	0	0	712	
11	0	0	0	0	360	
12	0	0	0	0	761	
13	0	0	0	0	514	
14	0	0	0	0	899	
15	0	0	0	0	414	
0	0	0	0	0	731	
1	0	0	0	0	559	
2	0	0	0	0	489	
3	0	0	0	0	141	
4	0	0	0	0	935	
5	0	0	0	0	0	
6	0	0	0	0	1022	
7	0	0	0	0	0	
8	0	0	0	0	681	
9	0	0	0	0	860	
10	0	0	0	0	81	
11	0	0	0	0	604	
12	0	0	0	0	595	
13	0	0	0	0	718	
14	0	0	0	0	352	
15	0	0	0	0	239	
0	0	0	0	0	782	
1	0	0	0	0	7	
2	0	0	0	0	190	
3	0	0	0	0	476	
4	0	0	0	0	354	
5	0	0	0	0	865	
6	0	0	0	0	758	
7	0	0	0	0	404	
8	0	0	0	0	602	
9	0	0	0	0	380	
10	0	0	0	0	518	
11	0	0	0	0	707	
12	0	0	0	0	337	
13	0	0	0	0	635	
14	0	0	0	0	383	
15	0	0	0	0	547	
0	0	0	0	0	369	
1	0	0	0	0	803	
2	0	0	0	0	350	
3	0	0	0	0	487	
4	0	0	0	0	802	
5	0	0	0	0	373	
6	0	0	0	0	475	
7	0	0	0	0	563	
8	0	0	0	0	588	
9	0	0	0	0	459	
10	0	0	0	0	444	
11	0	0	0	0	465	
12	0	0	0	0	554	
13	0	0	0	0	463	
14	0	0	0	0	438	
15	0	0	0	0	696	
0	0	0	0	0	287	
1	0	0	0	0	603	
2	0	0	0	0	498	
3	0	0	0	0	570	
4	0	0	0	0	304	
5	0	0	0	0	545	
6	0	0	0	0	514	
7	0	0	0	0	503	
8	0	0	0	0	414	
9	0	0	0	0	898	
10	0	0	0	0	258	
11	0	0	0	0	236	
12	0	0	0	0	525	
13	0	0	0	0	456	
14	0	0	0	0	851	
15	0	0	0	0	375	
0	0	0	0	0	377	
1	0	0	0	0	381	
2	0	0	0	0	770	
3	0	0	0	0	591	
4	0	0	0	0	348	
5	0	0	0	0	527	
6	0	0	0	0	515	
7	0	0	0	0	480	
8	0	0	0	0	461	
9	0	0	0	0	562	
10	0	0	0	0	584	
11	0	0	0	0	345	
12	0	0	0	0	636	
13	0	0	0	0	355	
14	0	0	0	0	641	
15	0	0	0	0	540	
0	0	0	0	0	291	
1	0	0	0	0	575	
2	0	0	0	0	572	
3	0	0	0	0	415	
4	0	0	0	0	485	
5	0	0	0	0	463	
6	0	0	0	0	528	
7	0	0	0	0	222	
8	0	0	0	0	910	
9	0	0	0	0	244	
10	0	0	0	0	600	
11	0	0	0	0	533	
12	0	0	0	0	408	
13	0	0	0	0	620	
14	0	0	0	0	403	
15	0	0	0	0	949	
0	0	0	0	0	190	
1	0	0	0	0	672	
2	0	0	0	0	535	
3	0	0	0	0	307	
4	0	0	0	0	837	
5	0	0	0	0	380	
6	0	0	0	0	495	
7	0	0	0	0	498	
8	0	0	0	0	640	
9	0	0	0	0	367	
10	0	0	0	0	219	
11	0	0	0	0	434	
12	0	0	0	0	552	
13	0	0	0	0	562	
14	0	0	0	0	771	
15	0	0	0	0	339	
0	0	0	0	0	928	
1	0	0	0	0	343	
2	0	0	0	0	625	
3	0	0	0	0	694	
4	0	0	0	0	334	
5	0	0	0	0	888	
6	0	0	0	0	483	
7	0	0	0	0	332	
8	0	0	0	0	963	
9	0	0	0	0	624	
10	0	0	0	0	220	
11	0	0	0	0	607	
12	0	0	0	0	873	
13	0	0	0	0	0	
14	0	0	0	0	729	
15	0	0	0	0	858	
0	0	0	0	0	448	
1	0	0	0	0	356	
2	0	0	0	0	796	
3	0	0	0	0	0	
4	0	0	0	0	966	
5	0	0	0	0	462	
6	0	0	0	0	975	
7	0	0	0	0	831	
8	0	0	0	0	710	
9	0	0	0	0	491	
10	0	0	0	0	662	
11	0	0	0	0	948	
12	0	0	0	0	54	
13	0	0	0	0	769	
14	0	0	0	0	468	
15	0	0	0	0	0	
0	0	0	0	0	996	
1	0	0	0	0	361	
2	0	0	0	0	498	
3	0	0	0	0	632	
4	0	0	0	0	638	
5	0	0	0	0	456	
6	0	0	0	0	618	
7	0	0	0	0	521	
8	0	0	0	0	428	
9	0	0	0	0	585	
10	0	0	0	0	542	
11	0	0	0	0	494	
12	0	0	0	0	576	
13	0	0	0	0	508	
14	0	0	0	0	531	
15	0	0	0	0	454	
0	0	0	0	0	659	
1	0	0	0	0	439	
2	0	0	0	0	397	
3	0	0	0	0	643	
4	0	0	0	0	577	
5	0	0	0	0	377	
6	0	0	0	0	565	
7	0	0	0	0	418	
8	0	0	0	0	459	
9	0	0	0	0	661	
10	0	0	0	0	364	
11	0	0	0	0	560	
12	0	0	0	0	603	
13	0	0	0	0	623	
14	0	0	0	0	272	
15	0	0	0	0	591	
0	0	0	0	0	423	
1	0	0	0	0	630	
2	0	0	0	0	536	
3	0	0	0	0	455	
4	0	0	0	0	468	
5	0	0	0	0	650	
6	0	0	0	0	557	
7	0	0	0	0	345	
8	0	0	0	0	722	
9	0	0	0	0	303	
10	0	0	0	0	744	
11	0	0	0	0	513	
12	0	0	0	0	360	
13	0	0	0	0	313	
14	0	0	0	0	721	
15	0	0	0	0	307	
0	0	0	0	0	647	
1	0	0	0	0	345	
2	0	0	0	0	613	
3	0	0	0	0	525	
4	0	0	0	0	486	
5	0	0	0	0	323	
6	0	0	0	0	491	
7	0	0	0	0	498	
8	0	0	0	0	649	
9	0	0	0	0	807	
10	0	0	0	0	244	
11	0	0	0	0	772	
12	0	0	0	0	322	
13	0	0	0	0	540	
14	0	0	0	0	439	
15	0	0	0	0	736	
0	0	0	0	0	441	
1	0	0	0	0	542	
2	0	0	0	0	304	
3	0	0	0	0	745	
4	0	0	0	0	336	
5	0	0	0	0	641	
6	0	0	0	0	682	
7	0	0	0	0	535	
8	0	0	0	0	457	
9	0	0	0	0	447	
10	0	0	0	0	318	
11	0	0	0	0	667	
12	0	0	0	0	443	
13	0	0	0	0	676	
14	0	0	0	0	197	
15	0	0	0	0	825	
0	0	0	0	0	72	
1	0	0	0	0	778	
2	0	0	0	0	721	
3	0	0	0	0	0	
4	0	0	0	0	786	
5	0	0	0	0	248	
6	0	0	0	0	624	
7	0	0	0	0	707	
8	0	0	0	0	425	
9	0	0	0	0	68	
10	0	0	0	0	711	
11	0	0	0	0	337	
12	0	0	0	0	944	
13	0	0	0	0	563	
14	0	0	0	0	581	
15	0	0	0	0	655	
0	0	0	0	0	29	
1	0	0	0	0	384	
2	0	0	0	0	777	
3	0	0	0	0	890	
4	0	0	0	0	247	
5	0	0	0	0	255	
6	0	0	0	0	589	
7	0	0	0	0	864	
8	0	0	0	0	817	
9	0	0	0	0	0	
10	0	0	0	0	542	
11	0	0	0	0	136	
12	0	0	0	0	609	
13	0	0	0	0	652	
14	0	0	0	0	324	
15	0	0	0	0	1022	
0	0	0	0	0	314	
1	0	0	0	0	1022	
2	0	0	0	0	285	
3	0	0	0	0	460	
4	0	0	0	0	444	
5	0	0	0	0	936	
6	0	0	0	0	157	
7	0	0	0	0	594	
8	0	0	0	0	511	
9	0	0	0	0	426	
10	0	0	0	0	492	
11	0	0	0	0	542	
12	0	0	0	0	537	
13	0	0	0	0	511	
14	0	0	0	0	531	
15	0	0	0	0	560	
0	0	0	0	0	477	
1	0	0	0	0	467	
2	0	0	0	0	522	
3	0	0	0	0	483	
4	0	0	0	0	708	
5	0	0	0	0	429	
6	0	0	0	0	499	
7	0	0	0	0	282	
8	0	0	0	0	675	
9	0	0	0	0	504	
10	0	0	0	0	295	
11	0	0	0	0	575	
12	0	0	0	0	356	
13	0	0	0	0	519	
14	0	0	0	0	656	
15	0	0	0	0	531	
0	0	0	0	0	641	
1	0	0	0	0	395	
2	0	0	0	0	511	
3	0	0	0	0	373	
4	0	0	0	0	781	
5	0	0	0	0	348	
6	0	0	0	0	471	
7	0	0	0	0	668	
8	0	0	0	0	415	
9	0	0	0	0	543	
10	0	0	0	0	410	
11	0	0	0	0	291	
12	0	0	0	0	730	
13	0	0	0	0	627	
14	0	0	0	0	530	
15	0	0	0	0	728	
0	0	0	0	0	252	
1	0	0	0	0	526	
2	0	0	0	0	410	
3	0	0	0	0	391	
4	0	0	0	0	952	
5	0	0	0	0	264	
6	0	0	0	0	173	
7	0	0	0	0	745	
8	0	0	0	0	248	
9	0	0	0	0	787	
10	0	0	0	0	375	
11	0	0	0	0	300	
12	0	0	0	0	645	
13	0	0	0	0	552	
14	0	0	0	0	414	
15	0	0	0	0	462	
0	0	0	0	0	515	
1	0	0	0	0	628	
2	0	0	0	0	297	
3	0	0	0	0	740	
4	0	0	0	0	151	
5	0	0	0	0	666	
6	0	0	0	0	276	
7	0	0	0	0	844	
8	0	0	0	0	265	
9	0	0	0	0	839	
10	0	0	0	0	164	
11	0	0	0	0	652	
12	0	0	0	0	43	
13	0	0	0	0	960	
14	0	0	0	0	168	
15	0	0	0	0	408	
0	0	0	0	0	943	
1	0	0	0	0	27	
2	0	0	0	0	711	
3	0	0	0	0	917	
4	0	0	0	0	657	
5	0	0	0	0	432	
6	0	0	0	0	0	
7	0	0	0	0	684	
8	0	0	0	0	70	
9	0	0	0	0	400	
10	0	0	0	0	437	
11	0	0	0	0	248	
12	0	0	0	0	1022	
13	0	0	0	0	451	
14	0	0	0	0	344	
15	0	0	0	0	347	
0	0	0	0	0	675	
1	0	0	0	0	27	
2	0	0	0	0	451	
3	0	0	0	0	907	
4	0	0	0	0	584	
5	0	0	0	0	276	
6	0	0	0	0	527	
7	0	0	0	0	583	
8	0	0	0	0	652	
9	0	0	0	0	127	
10	0	0	0	0	808	
11	0	0	0	0	287	
12	0	0	0	0	1022	
13	0	0	0	0	0	
14	0	0	0	0	381	
15	0	0	0	0	587	
0	0	0	0	0	402	
1	0	0	0	0	410	
2	0	0	0	0	292	
3	0	0	0	0	800	
4	0	0	0	0	577	
5	0	0	0	0	623	
6	0	0	0	0	646	
7	0	0	0	0	1022	
8	0	0	0	0	0	
9	0	0	0	0	494	
10	0	0	0	0	274	
11	0	0	0	0	988	
12	0	0	0	0	274	
13	0	0	0	0	537	
14	0	0	0	0	427	
15	0	0	0	0	566	
0	0	0	0	0	547	
1	0	0	0	0	223	
2	0	0	0	0	666	
3	0	0	0	0	489	
4	0	0	0	0	403	
5	0	0	0	0	623	
6	0	0	0	0	481	
7	0	0	0	0	680	
8	0	0	0	0	398	
9	0	0	0	0	694	
10	0	0	0	0	491	
11	0	0	0	0	603	
12	0	0	0	0	655	
13	0	0	0	0	447	
14	0	0	0	0	511	
15	0	0	0	0	880	
0	0	0	0	0	429	
1	0	0	0	0	362	
2	0	0	0	0	536	
3	0	0	0	0	341	
4	0	0	0	0	595	
5	0	0	0	0	419	
6	0	0	0	0	504	
7	0	0	0	0	446	
8	0	0	0	0	531	
9	0	0	0	0	320	
10	0	0	0	0	762	
11	0	0	0	0	582	
12	0	0	0	0	556	
13	0	0	0	0	776	
14	0	0	0	0	103	
15	0	0	0	0	1022	
0	0	0	0	0	377	
1	0	0	0	0	522	
2	0	0	0	0	913	
3	0	0	0	0	0	
4	0	0	0	0	1022	
5	0	0	0	0	513	
6	0	0	0	0	527	
7	0	0	0	0	124	
8	0	0	0	0	619	
9	0	0	0	0	580	
10	0	0	0	0	691	
11	0	0	0	0	313	
12	0	0	0	0	338	
13	0	0	0	0	652	
14	0	0	0	0	161	
15	0	0	0	0	639	
0	0	0	0	0	537	
1	0	0	0	0	609	
2	0	0	0	0	542	
3	0	0	0	0	332	
4	0	0	0	0	452	
5	0	0	0	0	463	
6	0	0	0	0	735	
7	0	0	0	0	192	
8	0	0	0	0	805	
9	0	0	0	0	399	
10	0	0	0	0	600	
11	0	0	0	0	390	
12	0	0	0	0	550	
13	0	0	0	0	440	
14	0	0	0	0	301	
15	0	0	0	0	371	
0	0	0	0	0	752	
1	0	0	0	0	381	
2	0	0	0	0	674	
3	0	0	0	0	142	
4	0	0	0	0	724	
5	0	0	0	0	471	
6	0	0	0	0	797	
7	0	0	0	0	435	
8	0	0	0	0	888	
9	0	0	0	0	421	
10	0	0	0	0	457	
11	0	0	0	0	692	
12	0	0	0	0	506	
13	0	0	0	0	419	
14	0	0	0	0	489	
15	0	0	0	0	111	
0	0	0	0	0	538	
1	0	0	0	0	509	
2	0	0	0	0	1022	
3	0	0	0	0	0	
4	0	0	0	0	786	
5	0	0	0	0	527	
6	0	0	0	0	140	
7	0	0	0	0	1022	
8	0	0	0	0	0	
9	0	0	0	0	996	
10	0	0	0	0	0	
11	0	0	0	0	948	
12	0	0	0	0	485	
13	0	0	0	0	849	
14	0	0	0	0	137	
15	0	0	0	0	1022	
0	0	0	0	0	445	
1	0	0	0	0	703	
2	0	0	0	0	555	
3	0	0	0	0	0	
4	0	0	0	0	926	
5	0	0	0	0	513	
6	0	0	0	0	589	
7	0	0	0	0	417	
8	0	0	0	0	227	
9	0	0	0	0	359	
10	0	0	0	0	840	
11	0	0	0	0	30	
12	0	0	0	0	891	
13	0	0	0	0	350	
14	0	0	0	0	359	
15	0	0	0	0	58	
0	0	0	0	0	545	
1	0	0	0	0	427	
2	0	0	0	0	700	
3	0	0	0	0	335	
4	0	0	0	0	718	
5	0	0	0	0	185	
6	0	0	0	0	536	
7	0	0	0	0	729	
8	0	0	0	0	258	
9	0	0	0	0	441	
10	0	0	0	0	456	
11	0	0	0	0	567	
12	0	0	0	0	479	
13	0	0	0	0	633	
14	0	0	0	0	465	
15	0	0	0	0	564	
0	0	0	0	0	629	
1	0	0	0	0	381	
2	0	0	0	0	667	
3	0	0	0	0	419	
4	0	0	0	0	513	
5	0	0	0	0	506	
6	0	0	0	0	489	
7	0	0	0	0	383	
8	0	0	0	0	444	
9	0	0	0	0	914	
10	0	0	0	0	265	
11	0	0	0	0	334	
12	0	0	0	0	783	
13	0	0	0	0	109	
14	0	0	0	0	752	
15	0	0	0	0	421	
0	0	0	0	0	444	
1	0	0	0	0	0	
2	0	0	0	0	1022	
3	0	0	0	0	429	
4	0	0	0	0	578	
5	0	0	0	0	594	
6	0	0	0	0	311	
7	0	0	0	0	694	
8	0	0	0	0	318	
9	0	0	0	0	620	
10	0	0	0	0	468	
11	0	0	0	0	659	
12	0	0	0	0	451	
13	0	0	0	0	70	
14	0	0	0	0	948	
15	0	0	0	0	365	
0	0	0	0	0	660	
1	0	0	0	0	78	
2	0	0	0	0	693	
3	0	0	0	0	405	
4	0	0	0	0	757	
5	0	0	0	0	337	
6	0	0	0	0	688	
7	0	0	0	0	283	
8	0	0	0	0	864	
9	0	0	0	0	152	
10	0	0	0	0	849	
11	0	0	0	0	436	
12	0	0	0	0	744	
13	0	0	0	0	448	
14	0	0	0	0	155	
15	0	0	0	0	99	
0	0	0	0	0	800	
1	0	0	0	0	531	
2	0	0	0	0	382	
3	0	0	0	0	690	
4	0	0	0	0	268	
5	0	0	0	0	523	
6	0	0	0	0	209	
7	0	0	0	0	500	
8	0	0	0	0	790	
9	0	0	0	0	718	
10	0	0	0	0	163	
11	0	0	0	0	403	
12	0	0	0	0	839	
13	0	0	0	0	457	
14	0	0	0	0	3	
15	0	0	0	0	1022	
0	0	0	0	0	472	
1	0	0	0	0	291	
2	0	0	0	0	74	
3	0	0	0	0	871	
4	0	0	0	0	0	
5	0	0	0	0	952	
6	0	0	0	0	364	
7	0	0	0	0	249	
8	0	0	0	0	282	
9	0	0	0	0	581	
10	0	0	0	0	595	
11	0	0	0	0	262	
12	0	0	0	0	743	
13	0	0	0	0	92	
14	0	0	0	0	716	
15	0	0	0	0	312	
0	0	0	0	0	687	
1	0	0	0	0	699	
2	0	0	0	0	462	
3	0	0	0	0	680	
4	0	0	0	0	247	
5	0	0	0	0	817	
6	0	0	0	0	450	
7	0	0	0	0	494	
8	0	0	0	0	174	
9	0	0	0	0	998	
10	0	0	0	0	133	
11	0	0	0	0	244	
12	0	0	0	0	416	
13	0	0	0	0	963	
14	0	0	0	0	54	
15	0	0	0	0	760	
0	0	0	0	0	800	
1	0	0	0	0	662	
2	0	0	0	0	172	
3	0	0	0	0	565	
4	0	0	0	0	908	
5	0	0	0	0	804	
6	0	0	0	0	544	
7	0	0	0	0	82	
8	0	0	0	0	733	
9	0	0	0	0	609	
10	0	0	0	0	730	
11	0	0	0	0	304	
12	0	0	0	0	632	
13	0	0	0	0	385	
14	0	0	0	0	402	
15	0	0	0	0	690	
0	0	0	0	0	151	
1	0	0	0	0	700	
2	0	0	0	0	567	
3	0	0	0	0	281	
4	0	0	0	0	669	
5	0	0	0	0	463	
6	0	0	0	0	300	
7	0	0	0	0	478	
8	0	0	0	0	699	
9	0	0	0	0	379	
10	0	0	0	0	560	
11	0	0	0	0	643	
12	0	0	0	0	449	
13	0	0	0	0	774	
14	0	0	0	0	261	
15	0	0	0	0	620	
0	0	0	0	0	445	
1	0	0	0	0	304	
2	0	0	0	0	595	
3	0	0	0	0	449	
4	0	0	0	0	415	
5	0	0	0	0	755	
6	0	0	0	0	327	
7	0	0	0	0	585	
8	0	0	0	0	438	
9	0	0	0	0	563	
10	0	0	0	0	444	
11	0	0	0	0	604	
12	0	0	0	0	792	
13	0	0	0	0	107	
14	0	0	0	0	525	
15	0	0	0	0	431	
0	0	0	0	0	545	
1	0	0	0	0	779	
2	0	0	0	0	201	
3	0	0	0	0	495	
4	0	0	0	0	694	
5	0	0	0	0	159	
6	0	0	0	0	806	
7	0	0	0	0	476	
8	0	0	0	0	540	
9	0	0	0	0	387	
10	0	0	0	0	1022	
11	0	0	0	0	97	
12	0	0	0	0	430	
13	0	0	0	0	783	
14	0	0	0	0	257	
15	0	0	0	0	562	
0	0	0	0	0	717	
1	0	0	0	0	184	
2	0	0	0	0	666	
3	0	0	0	0	333	
4	0	0	0	0	711	
5	0	0	0	0	554	
6	0	0	0	0	171	
7	0	0	0	0	1022	
8	0	0	0	0	161	
9	0	0	0	0	523	
10	0	0	0	0	668	
11	0	0	0	0	455	
12	0	0	0	0	737	
13	0	0	0	0	226	
14	0	0	0	0	605	
15	0	0	0	0	1012	
0	0	0	0	0	59	
1	0	0	0	0	511	
2	0	0	0	0	754	
3	0	0	0	0	299	
4	0	0	0	0	777	
5	0	0	0	0	11	
6	0	0	0	0	809	
7	0	0	0	0	238	
8	0	0	0	0	741	
9	0	0	0	0	561	
10	0	0	0	0	758	
11	0	0	0	0	326	
12	0	0	0	0	983	
13	0	0	0	0	576	
14	0	0	0	0	305	
15	0	0	0	0	946	
0	0	0	0	0	108	
1	0	0	0	0	675	
2	0	0	0	0	595	
3	0	0	0	0	441	
4	0	0	0	0	0	
5	0	0	0	0	446	
6	0	0	0	0	651	
7	0	0	0	0	986	
8	0	0	0	0	31	
9	0	0	0	0	913	
10	0	0	0	0	45	
11	0	0	0	0	750	
12	0	0	0	0	439	
13	0	0	0	0	220	
14	0	0	0	0	734	
15	0	0	0	0	625	
0	0	0	0	0	203	
1	0	0	0	0	274	
2	0	0	0	0	792	
3	0	0	0	0	378	
4	0	0	0	0	626	
5	0	0	0	0	733	
6	0	0	0	0	536	
7	0	0	0	0	1022	
8	0	0	0	0	152	
9	0	0	0	0	1017	
10	0	0	0	0	0	
11	0	0	0	0	782	
12	0	0	0	0	770	
13	0	0	0	0	764	
14	0	0	0	0	223	
15	0	0	0	0	241	
0	0	0	0	0	619	
1	0	0	0	0	905	
2	0	0	0	0	76	
3	0	0	0	0	631	
4	0	0	0	0	225	
5	0	0	0	0	756	
6	0	0	0	0	0	
7	0	0	0	0	912	
8	0	0	0	0	465	
9	0	0	0	0	158	
10	0	0	0	0	736	
11	0	0	0	0	698	
12	0	0	0	0	192	
13	0	0	0	0	378	
14	0	0	0	0	0	
15	0	0	0	0	1021	
0	0	0	0	0	428	
1	0	0	0	0	315	
2	0	0	0	0	684	
3	0	0	0	0	404	
4	0	0	0	0	770	
5	0	0	0	0	563	
6	0	0	0	0	45	
7	0	0	0	0	449	
8	0	0	0	0	507	
9	0	0	0	0	655	
10	0	0	0	0	439	
11	0	0	0	0	387	
12	0	0	0	0	801	
13	0	0	0	0	416	
14	0	0	0	0	442	
15	0	0	0	0	0	
0	0	0	0	0	814	
1	0	0	0	0	290	
2	0	0	0	0	556	
3	0	0	0	0	914	
4	0	0	0	0	91	
5	0	0	0	0	1022	
6	0	0	0	0	100	
7	0	0	0	0	718	
8	0	0	0	0	250	
9	0	0	0	0	707	
10	0	0	0	0	684	
11	0	0	0	0	528	
12	0	0	0	0	238	
13	0	0	0	0	707	
14	0	0	0	0	668	
15	0	0	0	0	360	
0	0	0	0	0	540	
1	0	0	0	0	396	
2	0	0	0	0	540	
3	0	0	0	0	595	
4	0	0	0	0	450	
5	0	0	0	0	288	
6	0	0	0	0	700	
7	0	0	0	0	460	
8	0	0	0	0	245	
9	0	0	0	0	647	
10	0	0	0	0	573	
11	0	0	0	0	550	
12	0	0	0	0	300	
13	0	0	0	0	643	
14	0	0	0	0	391	
15	0	0	0	0	527	
0	0	0	0	0	353	
1	0	0	0	0	760	
2	0	0	0	0	451	
3	0	0	0	0	522	
4	0	0	0	0	441	
5	0	0	0	0	575	
6	0	0	0	0	489	
7	0	0	0	0	542	
8	0	0	0	0	537	
9	0	0	0	0	482	
10	0	0	0	0	558	
11	0	0	0	0	516	
12	0	0	0	0	522	
13	0	0	0	0	457	
14	0	0	0	0	655	
15	0	0	0	0	447	
0	0	0	0	0	465	
1	0	0	0	0	460	
2	0	0	0	0	584	
3	0	0	0	0	486	
4	0	0	0	0	551	
5	0	0	0	0	478	
6	0	0	0	0	507	
7	0	0	0	0	538	
8	0	0	0	0	415	
9	0	0	0	0	598	
10	0	0	0	0	451	
11	0	0	0	0	578	
12	0	0	0	0	478	
13	0	0	0	0	489	
14	0	0	0	0	525	
15	0	0	0	0	488	
0	0	0	0	0	507	
1	0	0	0	0	515	
2	0	0	0	0	491	
3	0	0	0	0	549	
4	0	0	0	0	506	
5	0	0	0	0	475	
6	0	0	0	0	526	
7	0	0	0	0	511	
8	0	0	0	0	538	
9	0	0	0	0	501	
10	0	0	0	0	479	
11	0	0	0	0	544	
12	0	0	0	0	453	
13	0	0	0	0	527	
14	0	0	0	0	546	
15	0	0	0	0	486	
0	0	0	0	0	539	
1	0	0	0	0	527	
2	0	0	0	0	469	
3	0	0	0	0	548	
4	0	0	0	0	491	
5	0	0	0	0	456	
6	0	0	0	0	544	
7	0	0	0	0	587	
8	0	0	0	0	532	
9	0	0	0	0	414	
10	0	0	0	0	572	
11	0	0	0	0	462	
12	0	0	0	0	498	
13	0	0	0	0	577	
14	0	0	0	0	485	
15	0	0	0	0	415	
0	0	0	0	0	507	
1	0	0	0	0	523	
2	0	0	0	0	461	
3	0	0	0	0	584	
4	0	0	0	0	501	
5	0	0	0	0	497	
6	0	0	0	0	483	
7	0	0	0	0	545	
8	0	0	0	0	446	
9	0	0	0	0	455	
10	0	0	0	0	638	
11	0	0	0	0	457	
12	0	0	0	0	389	
13	0	0	0	0	510	
14	0	0	0	0	359	
15	0	0	0	0	783	
0	0	0	0	0	424	
1	0	0	0	0	465	
2	0	0	0	0	613	
3	0	0	0	0	307	
4	0	0	0	0	787	
5	0	0	0	0	107	
6	0	0	0	0	906	
7	0	0	0	0	456	
8	0	0	0	0	704	
9	0	0	0	0	211	
10	0	0	0	0	639	
11	0	0	0	0	443	
12	0	0	0	0	597	
13	0	0	0	0	383	
14	0	0	0	0	406	
15	0	0	0	0	0	
0	0	0	0	0	1022	
1	0	0	0	0	259	
2	0	0	0	0	335	
3	0	0	0	0	408	
4	0	0	0	0	587	
5	0	0	0	0	507	
6	0	0	0	0	556	
7	0	0	0	0	558	
8	0	0	0	0	393	
9	0	0	0	0	673	
10	0	0	0	0	529	
11	0	0	0	0	737	
12	0	0	0	0	300	
13	0	0	0	0	556	
14	0	0	0	0	588	
15	0	0	0	0	449	
0	0	0	0	0	557	
1	0	0	0	0	436	
2	0	0	0	0	551	
3	0	0	0	0	570	
4	0	0	0	0	294	
5	0	0	0	0	980	
6	0	0	0	0	475	
7	0	0	0	0	336	
8	0	0	0	0	765	
9	0	0	0	0	718	
10	0	0	0	0	249	
11	0	0	0	0	263	
12	0	0	0	0	582	
13	0	0	0	0	275	
14	0	0	0	0	780	
15	0	0	0	0	432	
0	0	0	0	0	306	
1	0	0	0	0	570	
2	0	0	0	0	536	
3	0	0	0	0	598	
4	0	0	0	0	309	
5	0	0	0	0	1012	
6	0	0	0	0	390	
7	0	0	0	0	403	
8	0	0	0	0	306	
9	0	0	0	0	244	
10	0	0	0	0	861	
11	0	0	0	0	643	
12	0	0	0	0	848	
13	0	0	0	0	0	
14	0	0	0	0	504	
15	0	0	0	0	502	
0	0	0	0	0	837	
1	0	0	0	0	0	
2	0	0	0	0	678	
3	0	0	0	0	263	
4	0	0	0	0	1022	
5	0	0	0	0	0	
6	0	0	0	0	965	
7	0	0	0	0	158	
8	0	0	0	0	0	
9	0	0	0	0	854	
10	0	0	0	0	581	
11	0	0	0	0	394	
12	0	0	0	0	126	
13	0	0	0	0	1022	
14	0	0	0	0	348	
15	0	0	0	0	295	
0	0	0	0	0	559	
1	0	0	0	0	1022	
2	0	0	0	0	795	
3	0	0	0	0	91	
4	0	0	0	0	271	
5	0	0	0	0	751	
6	0	0	0	0	82	
7	0	0	0	0	729	
8	0	0	0	0	1022	
9	0	0	0	0	0	
10	0	0	0	0	1022	
11	0	0	0	0	571	
12	0	0	0	0	107	
13	0	0	0	0	384	
14	0	0	0	0	195	
15	0	0	0	0	1017	
0	0	0	0	0	129	
1	0	0	0	0	515	
2	0	0	0	0	370	
3	0	0	0	0	705	
4	0	0	0	0	558	
5	0	0	0	0	444	
6	0	0	0	0	427	
7	0	0	0	0	661	
8	0	0	0	0	515	
9	0	0	0	0	530	
10	0	0	0	0	519	
11	0	0	0	0	425	
12	0	0	0	0	728	
13	0	0	0	0	440	
14	0	0	0	0	473	
15	0	0	0	0	522	
0	0	0	0	0	511	
1	0	0	0	0	534	
2	0	0	0	0	490	
3	0	0	0	0	502	
4	0	0	0	0	501	
5	0	0	0	0	520	
6	0	0	0	0	452	
7	0	0	0	0	518	
8	0	0	0	0	564	
9	0	0	0	0	520	
10	0	0	0	0	503	
11	0	0	0	0	504	
12	0	0	0	0	529	
13	0	0	0	0	513	
14	0	0	0	0	520	
15	0	0	0	0	491	
0	0	0	0	0	500	
1	0	0	0	0	507	
2	0	0	0	0	508	
3	0	0	0	0	528	
4	0	0	0	0	514	
5	0	0	0	0	488	
6	0	0	0	0	510	
7	0	0	0	0	528	
8	0	0	0	0	522	
9	0	0	0	0	516	
10	0	0	0	0	527	
11	0	0	0	0	503	
12	0	0	0	0	492	
13	0	0	0	0	516	
14	0	0	0	0	513	
15	0	0	0	0	509	
0	0	0	0	0	519	
1	0	0	0	0	499	
2	0	0	0	0	515	
3	0	0	0	0	476	
4	0	0	0	0	542	
5	0	0	0	0	467	
6	0	0	0	0	495	
7	0	0	0	0	496	
8	0	0	0	0	535	
9	0	0	0	0	569	
10	0	0	0	0	525	
11	0	0	0	0	492	
12	0	0	0	0	519	
13	0	0	0	0	508	
14	0	0	0	0	519	
15	0	0	0	0	513	
0	0	0	0	0	514	
1	0	0	0	0	494	
2	0	0	0	0	503	
3	0	0	0	0	499	
4	0	0	0	0	532	
5	0	0	0	0	462	
6	0	0	0	0	476	
7	0	0	0	0	554	
8	0	0	0	0	507	
9	0	0	0	0	503	
10	0	0	0	0	495	
11	0	0	0	0	562	
